wavelength,net_power
0.6999999999999998,0.006470756747173279
0.6982485404503752,0.006570612583598409
0.6965058236272876,0.006671473206493816
0.6947717842323651,0.006772984550792813
0.693046357615894,0.006875076769456142
0.691329479768786,0.0069780304819353905
0.6896210873146621,0.0070821640638419475
0.6879211175020541,0.007187477190409701
0.6862295081967212,0.007293636508073898
0.68454619787408,0.007400322190492029
0.6828711256117453,0.0075075633626783995
0.6812042310821805,0.007615699245377125
0.6795454545454543,0.007725005187955759
0.6778947368421052,0.00783538584866296
0.6762520193861066,0.007946467921666514
0.674617244157937,0.00805799435171048
0.6729903536977491,0.008170094701515763
0.6713712910986367,0.008283137790587574
0.6697599999999999,0.008397323839945743
0.6681564245810054,0.00851245730207523
0.66656050955414,0.00862814893324605
0.664972200158856,0.008744231576257436
0.663391442155309,0.00886093993383487
0.6618181818181817,0.008978656529677472
0.6602523659305992,0.009097495052108613
0.6586939417781273,0.00921717140012411
0.657142857142857,0.009337304978513594
0.6555990602975724,0.009457827475917585
0.6540624999999999,0.00957905671717979
0.6525331254871394,0.009701352150980082
0.6510108864696733,0.009824721378251591
0.6494957331264545,0.009948803897974071
0.6479876160990712,0.010073253807704522
0.6464864864864864,0.01019811144193987
0.6449922958397534,0.010323762060421914
0.6435049961568023,0.01045052263430399
0.6420245398773006,0.01057829990593482
0.6405508798775822,0.010706689110481818
0.6390839694656488,0.01083540942259183
0.6376237623762375,0.010964608152101861
0.6361702127659573,0.01109470491401766
0.6347232752084911,0.011225941914227813
0.6332829046898638,0.01135812439312708
0.6318490566037736,0.011490831888087409
0.6304216867469878,0.011623873620822648
0.6290007513148008,0.011757496842629308
0.6275862068965516,0.011892122265713847
0.6261780104712041,0.01202789128963732
0.6247761194029849,0.012164514598586433
0.6233804914370811,0.01230158784972336
0.6219910846953937,0.01243903528081398
0.6206078576723497,0.012577201298275675
0.6192307692307691,0.012716487631284853
0.6178597785977858,0.012856924153378694
0.6164948453608247,0.012998135702270704
0.6151359294636296,0.013139743180854712
0.613782991202346,0.013281770407456466
0.6124359912216532,0.01342462156898861
0.6110948905109488,0.013568655411950008
0.6097596504005826,0.01371381467078493
0.6084302325581394,0.013859706928222183
0.6071065989847715,0.01400604429665818
0.6057887120115774,0.014152962691469602
0.6044765342960288,0.014300874886581959
0.6031700288184437,0.01445001981491482
0.6018691588785047,0.014600202085371227
0.600573888091822,0.014751009645683936
0.5992841803865425,0.01490227602526296
0.598,0.015054282829962923
0.5967213114754097,0.015207475167057116
0.5954480796586059,0.015361991006847833
0.594180269694819,0.015517513009759605
0.5929178470254957,0.015673609167400362
0.591660777385159,0.015830201961532495
0.5904090267983074,0.015987662858189262
0.5891625615763546,0.016146427545320315
0.5879213483146067,0.016306541379570792
0.5866853538892781,0.016467620981634547
0.5854545454545453,0.016629272830043028
0.584228890439637,0.01679152041598972
0.583008356545961,0.0169547838097037
0.5817929117442668,0.017119437202045885
0.5805825242718446,0.017285422247089365
0.5793771626297577,0.017452331358909706
0.5781767955801105,0.01761986582802002
0.5769813921433494,0.017788169543559093
0.5757909215955983,0.017957676543380235
0.574605353466026,0.018128639954077593
0.5734246575342465,0.018300857302945377
0.5722488038277511,0.01847389531439969
0.5710777626193724,0.0186475742696263
0.5699115044247787,0.018822185953670745
0.56875,0.018998202408084197
0.567593220338983,0.019175782198807747
0.5664411366711772,0.0193546036859853
0.5652937204591492,0.019534207829326838
0.5641509433962264,0.01971448739928252
0.5630127774041694,0.019895801832034904
0.5618791946308724,0.020078597639539397
0.560750167448091,0.020262942872353577
0.5596256684491978,0.020448472754592124
0.5585056704469646,0.020634798484697167
0.5573901464713714,0.020821933134127744
0.5562790697674418,0.02101027404274043
0.5551724137931034,0.0212001637960535
0.5540701522170748,0.02139150885893135
0.5529722589167767,0.021583872057978896
0.5518787079762689,0.02177694079899188
0.5507894736842105,0.021970864063993595
0.549704530531845,0.022166091071356912
0.5486238532110091,0.022362882964268773
0.5475474166121648,0.02256102407856466
0.5464751958224543,0.02276004597172452
0.5454071661237785,0.02295972402141678
0.5443433029908973,0.023160310026279225
0.5432835820895522,0.02336224636082418
0.5422279792746113,0.023565665887115353
0.5411764705882353,0.02377021562733736
0.5401290322580644,0.023975397883089132
0.5390856406954282,0.024181068325614966
0.5380462724935732,0.024387560989877665
0.537010904425914,0.024595306977062158
0.5359795134443022,0.024804351593130734
0.5349520766773163,0.025014278643858495
0.5339285714285714,0.02522461287501998
0.5329089751750477,0.025435264278599448
0.5318932655654384,0.025646543358866757
0.5308814204185162,0.025858744952177114
0.5298734177215189,0.026071760625380414
0.5288692356285534,0.02628513929253919
0.5278688524590164,0.026498522505423065
0.5268722466960352,0.026711972950861623
0.5258793969849246,0.026925833504467162
0.5248902821316614,0.027140267967945334
0.5239048811013767,0.027354983784893372
0.5229231730168644,0.027569441877363737
0.5219451371571072,0.027783330572853683
0.5209707529558182,0.02799679214507164
0.5199999999999999,0.02821015533620267
0.5190328580285183,0.02842346004568374
0.5180693069306931,0.02863628537012492
0.5171093267449042,0.02884806567998277
0.5161528976572133,0.029058553434741376
0.5152,0.029267929599346862
0.5142506142506142,0.029476443181716414
0.5133047210300429,0.029683969820481694
0.5123623011015911,0.029889967038274616
0.5114233353695784,0.03009387617995147
0.5104878048780487,0.030295539194074503
0.5095556908094948,0.030495181546473786
0.5086269744835965,0.030692978725183
0.5077016373559733,0.030888671113947146
0.5067796610169492,0.031081639688492264
0.5058610271903323,0.03127136037461459
0.5049457177322074,0.03145775021057712
0.5040337146297411,0.03164103717596439
0.5031249999999999,0.0318212973700142
0.5022195560887822,0.031998156948454995
0.501317365269461,0.03217097411582301
0.500418410041841,0.03233929867145459
0.49952267303102615,0.03250311203341058
0.4986301369863014,0.0326625936785202
0.49774078478002376,0.03281767411789645
0.49685459940652815,0.03296786355214816
0.49597156398104264,0.033112544011592915
0.4950916617386162,0.0332514092364566
0.4942148760330578,0.033384575405942
0.4933411903358868,0.03351224006474452
0.49247058823529416,0.033634252978940585
0.4916030534351144,0.03375005720903462
0.4907385697538101,0.03385906150920999
0.48987712112346404,0.033961045495726934
0.489018691588785,0.03405617021536696
0.4881632653061224,0.03414459521301964
0.48731082654249125,0.034226123686931974
0.48646135967460774,0.03430025775459948
0.48561484918793496,0.03436659440756295
0.4847712796757382,0.03442512206612752
0.4839306358381502,0.034476089557791655
0.4830929024812464,0.03451959027973123
0.48225806451612907,0.034555320714679635
0.48142610695802185,0.03458278806591762
0.4805970149253731,0.03460175348525901
0.4797707736389685,0.03461243367271162
0.4789473684210526,0.034615233837403885
0.4781267846944603,0.03461028518693646
0.47730900798175596,0.03459727456623646
0.4764940239043824,0.03457574987925385
0.4756818181818182,0.03454558336474685
0.474872376630743,0.03450710802977388
0.47406568516421294,0.03446078683853962
0.4732617297908423,0.03440676369881745
0.4724604966139955,0.034344763492891506
0.4716619718309859,0.03427443653475272
0.4708661417322834,0.03419577985687003
0.4700729927007299,0.03410920048816961
0.46928251121076225,0.034015173591797544
0.46849468382764414,0.033913869963677304
0.46770949720670385,0.033805138990421126
0.4669269380925823,0.033688838469026455
0.4661469933184855,0.033565136054113806
0.4653696498054475,0.033434458081489205
0.4645948945615982,0.033297159709734736
0.46382271468144043,0.033153293743288514
0.4630530973451327,0.03300273665314678
0.46228602981778016,0.03284552830005463
0.46152149944873205,0.03268204270130581
0.46075949367088603,0.032512793218302014
0.46,0.03233808061914355
0.4592430060340099,0.032157870240413576
0.45848849945235487,0.03197203759093867
0.45773646801530893,0.0317807180472677
0.4569868995633188,0.03158437735130924
0.45623978201634874,0.031383519262061885
0.45549510337323174,0.03117834301383213
0.4547528517110266,0.03096872540846422
0.45401301518438175,0.030754557691550468
0.4532755820249053,0.030536082970294677
0.4525405405405405,0.030313869922502547
0.45180787911494874,0.030088438642966574
0.45107758620689653,0.02985992304470054
0.45034965034965035,0.029628120167670025
0.4496240601503759,0.029392875715480098
0.4489008042895442,0.029154410025725275
0.44817987152034255,0.028913259233993287
0.4474612506680919,0.028669910542674273
0.4467449306296692,0.02842451842463155
0.44603090037293547,0.028176982751897967
0.44531914893617025,0.027927276874526792
0.4446096654275093,0.027675658466413375
0.44390243902439025,0.027422543006378627
0.44319745897300156,0.02716819665538163
0.4424947145877378,0.0269125989350558
0.4417941952506596,0.026655631216234137
0.44109589041095887,0.026397383700152283
0.4403997895844292,0.026138239817742638
0.4397058823529411,0.025878637150711765
0.43901415836392244,0.025618755472602867
0.43832460732984296,0.02535846400848841
0.4376372190277052,0.025097584391669953
0.4369519832985386,0.02483619123208881
0.4362688900468994,0.024574637375028255
0.4355879292403746,0.024313288875687997
0.43490909090909086,0.024052261588504424
0.43423236514522817,0.02379143896805315
0.4335577421025375,0.0235307392420707
0.43288521199586355,0.023270330799759893
0.4322147651006711,0.023010557615949292
0.43154639175257736,0.022751658583110144
0.43088008234688624,0.022493592653939107
0.4302158273381295,0.022236167605289316
0.42955361723961005,0.021979338782029748
0.4288934426229508,0.02172335578591251
0.42823529411764705,0.02146859482108518
0.42757916241062305,0.021215250864552455
0.426925038245793,0.020963215010838136
0.4262729124236252,0.020712265949238893
0.4256227758007118,0.020462371438275246
0.4249746192893401,0.020213781774735796
0.4243284338570705,0.019966821760971497
0.4236842105263158,0.01972160782716351
0.42304194037392623,0.019477991190466802
0.42240161453077696,0.019235781372598765
0.4217632241813602,0.018995005015674544
0.4211267605633802,0.018755922596377702
0.42049221496735306,0.018518790028653725
0.41985957873620866,0.018283625747363336
0.41922884326489734,0.01805023413478761
0.4186,0.017818458104226664
0.41797304043934097,0.017588388785784226
0.4173479561316052,0.017360309654095622
0.41672473867595816,0.01713443847166135
0.41610337972166994,0.016910743778327787
0.4154838709677419,0.016689027223237174
0.4148662041625371,0.016469175981473995
0.41425037110341417,0.01625131139997726
0.4136363636363636,0.016035678700435985
0.41302417365564875,0.015822404460451203
0.4124137931034483,0.015611387916040824
0.4118052139695032,0.015402441980564945
0.4111984282907662,0.015195527139742874
0.41059342815105443,0.014990822156552721
0.40999020568070516,0.014788554644206064
0.4093887530562347,0.014588775505782548
0.4087890625,0.014391321543192363
0.4081911262798634,0.014196006839718988
0.40759493670886077,0.014002837224672705
0.4070004861448711,0.013812018334469395
0.4064077669902913,0.013623750145026875
0.4058167716917111,0.013438028863915041
0.4052274927395934,0.013254666813955047
0.4046399226679555,0.013073506197683386
0.40405405405405403,0.012894596814805426
0.40346987951807234,0.012718149876687268
0.40288739172281035,0.012544321263591323
0.4023065833733782,0.012373057653386914
0.4017274472168905,0.012204167293945804
0.4011499760421658,0.012037534885966747
0.40057416267942586,0.01187324849805424
0.4,0.011711505225106635
