Wavelength (μm),LDOS Power (a.u.)
0.6999999999999998,0.7154676796161924
0.6982485404503752,0.7172931278436406
0.6965058236272876,0.7191294542968424
0.6947717842323651,0.7209382446124117
0.693046357615894,0.722711214686578
0.691329479768786,0.7244785225062667
0.6896210873146621,0.7262758612852289
0.6879211175020541,0.7281062227732412
0.6862295081967212,0.7299372761844728
0.68454619787408,0.7317365371897698
0.6828711256117453,0.7335060890282947
0.6812042310821805,0.7352797618279195
0.6795454545454543,0.7370864312452704
0.6778947368421052,0.7389192385543722
0.6762520193861066,0.7407435275066426
0.674617244157937,0.7425343612157359
0.6729903536977491,0.7443030222246387
0.6713712910986367,0.7460843524067627
0.6697599999999999,0.7478991140365977
0.6681564245810054,0.7497320205339518
0.66656050955414,0.7515486690425326
0.664972200158856,0.753332640735035
0.663391442155309,0.7551027752385849
0.6618181818181817,0.7568924641489809
0.6602523659305992,0.7587137086148465
0.6586939417781273,0.7605446186193953
0.657142857142857,0.7623533570172976
0.6555990602975724,0.7641323536072671
0.6540624999999999,0.7659060353169664
0.6525331254871394,0.7677042085415642
0.6510108864696733,0.7695300885707592
0.6494957331264545,0.7713572586718118
0.6479876160990712,0.7731583798103754
0.6464864864864864,0.7749344630628988
0.6449922958397534,0.7767133755777303
0.6435049961568023,0.7785196281169047
0.6420245398773006,0.7803481907288072
0.6405508798775822,0.7821703000761863
0.6390839694656488,0.7839645868751421
0.6376237623762375,0.7857398499054019
0.6361702127659573,0.7875252178583425
0.6347232752084911,0.7893386840517025
0.6332829046898638,0.7911679952882366
0.6318490566037736,0.7929841845242834
0.6304216867469878,0.7947728157987658
0.6290007513148008,0.7965492503979519
0.6275862068965516,0.7983418022408947
0.6261780104712041,0.8001612447550168
0.6247761194029849,0.8019895015016745
0.6233804914370811,0.8037993816586737
0.6219910846953937,0.8055838236181915
0.6206078576723497,0.807363204774599
0.6192307692307691,0.8091631666556047
0.6178597785977858,0.8109870785583639
0.6164948453608247,0.8128127032212987
0.6151359294636296,0.8146163372924861
0.613782991202346,0.8163982281478136
0.6124359912216532,0.8181820207520941
0.6110948905109488,0.8199891395248187
0.6097596504005826,0.8218158534192467
0.6084302325581394,0.8236375684545019
0.6071065989847715,0.8254354294293669
0.6057887120115774,0.8272164642026685
0.6044765342960288,0.8290057553949234
0.6031700288184437,0.8308193475522505
0.6018691588785047,0.8326471459026205
0.600573888091822,0.8344640263906643
0.5992841803865425,0.8362569362958581
0.598,0.838038758253817
0.5967213114754097,0.8398342172771833
0.5954480796586059,0.8416532395458755
0.594180269694819,0.8434804606779649
0.5929178470254957,0.8452919642474688
0.591660777385159,0.8470810191799739
0.5904090267983074,0.8488651233558739
0.5891625615763546,0.8506669891890266
0.5879213483146067,0.852490125698517
0.5866853538892781,0.8543152604735483
0.5854545454545453,0.856121234889269
0.584228890439637,0.8579077211677729
0.583008356545961,0.8596953742899571
0.5817929117442668,0.8615034698204538
0.5805825242718446,0.8633292301905097
0.5793771626297577,0.8651510050134887
0.5781767955801105,0.8669516746285701
0.5769813921433494,0.8687369810736238
0.5757909215955983,0.8705291609436353
0.574605353466026,0.8723429310870855
0.5734246575342465,0.8741697534815388
0.5722488038277511,0.8759871960951354
0.5710777626193724,0.8777831291280966
0.5699115044247787,0.8795686601526683
0.56875,0.8813660162009984
0.567593220338983,0.8831845862230364
0.5664411366711772,0.8850109394143889
0.5652937204591492,0.886823424830027
0.5641509433962264,0.8886154840615599
0.5630127774041694,0.8904025777484671
0.5618791946308724,0.8922054132191163
0.560750167448091,0.8940276626383392
0.5596256684491978,0.8958521414004201
0.5585056704469646,0.897659416301741
0.5573901464713714,0.8994486963009559
0.5562790697674418,0.9012385510426715
0.5551724137931034,0.9030468260723843
0.5540701522170748,0.9048714729372552
0.5529722589167767,0.9066928816468676
0.5518787079762689,0.9084950666504957
0.5507894736842105,0.9102828210323699
0.549704530531845,0.9120764336227841
0.5486238532110091,0.9138897874630886
0.5475474166121648,0.9157154775360231
0.5464751958224543,0.9175328976654005
0.5454071661237785,0.9193304678939888
0.5443433029908973,0.9211180303990582
0.5432835820895522,0.9229161477640984
0.5422279792746113,0.9247339375641362
0.5411764705882353,0.9265593329964834
0.5401290322580644,0.9283721711984277
0.5390856406954282,0.9301659166880981
0.5380462724935732,0.9319546200377724
0.537010904425914,0.9337577060919723
0.5359795134443022,0.9355790590510484
0.5349520766773163,0.9374029214865846
0.5339285714285714,0.9392109361496138
0.5329089751750477,0.9410019046187792
0.5318932655654384,0.9427930011474941
0.5308814204185162,0.9446012195887918
0.5298734177215189,0.9464250949021875
0.5288692356285534,0.9482463585586074
0.5278688524590164,0.9500496639792629
0.5268722466960352,0.9518390893910572
0.5258793969849246,0.9536336773739357
0.5248902821316614,0.9554468905879253
0.5239048811013767,0.957272147439575
0.5229231730168644,0.9590899785396358
0.5219451371571072,0.9608890271534939
0.5209707529558182,0.9626782482545205
0.5199999999999999,0.9644772076237641
0.5190328580285183,0.9662949912731855
0.5180693069306931,0.9681204591467654
0.5171093267449042,0.969934299044312
0.5161528976572133,0.9717298433983313
0.5152,0.9735202169699192
0.5142506142506142,0.9753241577366779
0.5133047210300429,0.9771458300528778
0.5123623011015911,0.9789703778190525
0.5114233353695784,0.9807799682131244
0.5104878048780487,0.9825730054913056
0.5095556908094948,0.9843658193556334
0.5086269744835965,0.9861750455321254
0.5077016373559733,0.9879997098011327
0.5067796610169492,0.9898223103416013
0.5058610271903323,0.9916277000432778
0.5049457177322074,0.9934194028865031
0.5040337146297411,0.9952157937627104
0.5031249999999999,0.9970302848904447
0.5022195560887822,0.9988568831407896
0.501317365269461,1.0006766706726224
0.500418410041841,1.002478204404588
0.49952267303102615,1.0042698424714975
0.4986301369863014,1.0060707235330957
0.49774078478002376,1.0078901351110614
0.49685459940652815,1.0097175105574185
0.49597156398104264,1.0115338282714192
0.4950916617386162,1.0133321188985227
0.4942148760330578,1.0151249760371526
0.4933411903358868,1.016930978506632
0.49247058823529416,1.0187546616744374
0.4916030534351144,1.0205816270673724
0.4907385697538101,1.022394063182367
0.48987712112346404,1.0241899495428122
0.489018691588785,1.0259852415749857
0.4881632653061224,1.0277966739142717
0.48731082654249125,1.0296237137336222
0.48646135967460774,1.0314491224176334
0.48561484918793496,1.0332575332460234
0.4847712796757382,1.0350520263544771
0.4839306358381502,1.0368508243142864
0.4830929024812464,1.0386676515678328
0.48225806451612907,1.0404969221998752
0.48142610695802185,1.0423197384176899
0.4805970149253731,1.0441242575365202
0.4797707736389685,1.0459184783453108
0.4789473684210526,1.0477216415766157
0.4781267846944603,1.049543486254507
0.47730900798175596,1.0513737203108318
0.4764940239043824,1.0531930851339444
0.4756818181818182,1.0549941182427094
0.474872376630743,1.056789230379562
0.47406568516421294,1.0585973532230442
0.4732617297908423,1.0604235178420203
0.4724604966139955,1.062253386253303
0.4716619718309859,1.0640686754954654
0.4708661417322834,1.0658668810431153
0.4700729927007299,1.067664022001685
0.46928251121076225,1.0694773969388534
0.46849468382764414,1.0713069070366437
0.46770949720670385,1.0731351050017879
0.4669269380925823,1.0749459756193145
0.4661469933184855,1.0767422317709858
0.4653696498054475,1.0785424459448711
0.4645948945615982,1.0803610450760883
0.46382271468144043,1.0821927102746733
0.4630530973451327,1.0840180442864622
0.46228602981778016,1.0858244660978091
0.46152149944873205,1.0876198251340992
0.46075949367088603,1.0894240018717927
0.46,1.0912474775477918
0.4592430060340099,1.093079967126882
0.45848849945235487,1.094901437769711
0.45773646801530893,1.0967037078665014
0.4569868995633188,1.0984993396295157
0.45623978201634874,1.1003081591898434
0.45549510337323174,1.1021358635643779
0.4547528517110266,1.1039677920989444
0.45401301518438175,1.1057846673199325
0.4532755820249053,1.107583405285091
0.4525405405405405,1.1093805318316599
0.45180787911494874,1.1111944217521457
0.45107758620689653,1.113025444029922
0.45034965034965035,1.1148554619984286
0.4496240601503759,1.1166673358885013
0.4489008042895442,1.1184634588724633
0.44817987152034255,1.1202632830362727
0.4474612506680919,1.1220823870183816
0.4467449306296692,1.123915606289028
0.44603090037293547,1.125742490212263
0.44531914893617025,1.1275493229948577
0.4446096654275093,1.1293440008001951
0.44390243902439025,1.1311476318813187
0.44319745897300156,1.1329717928559035
0.4424947145877378,1.134805943668974
0.4417941952506596,1.1366286803141379
0.44109589041095887,1.1384308162051178
0.4403997895844292,1.1402254077349134
0.4397058823529411,1.142033787995487
0.43901415836392244,1.1438625465610852
0.43832460732984296,1.1456962938283022
0.4376372190277052,1.1475141533049513
0.4369519832985386,1.1493123141297759
0.4362688900468994,1.1511082878043726
0.4355879292403746,1.1529221238000409
0.43490909090909086,1.1547547327266448
0.43423236514522817,1.156586752143667
0.4335577421025375,1.1583993453058243
0.43288521199586355,1.1601945991708367
0.4322147651006711,1.1619934411289838
0.43154639175257736,1.1638131441055692
0.43088008234688624,1.1656485990462562
0.4302158273381295,1.1674776590073594
0.42955361723961005,1.1692849754167511
0.4288934426229508,1.171078681250948
0.42823529411764705,1.1728817962354365
0.42757916241062305,1.1747074358135794
0.426925038245793,1.176544521767747
0.4262729124236252,1.1783695626811796
0.4256227758007118,1.1801719864273525
0.4249746192893401,1.1819657167418147
0.4243284338570705,1.1837743274455235
0.4236842105263158,1.1856056025600141
0.42304194037392623,1.18744295496673
0.42240161453077696,1.189263161957619
0.4217632241813602,1.191061463809211
0.4211267605633802,1.1928569094744659
0.42049221496735306,1.1946719606994811
0.41985957873620866,1.1965081912255005
0.41922884326489734,1.1983443698386265
0.4186,1.2001592350267891
0.41797304043934097,1.201954540637694
0.4173479561316052,1.203753402755463
0.41672473867595816,1.2055754769622555
0.41610337972166994,1.207415618629926
0.4154838709677419,1.2092491915484405
0.4148662041625371,1.2110585623998067
0.41425037110341417,1.212852297551572
0.4136363636363636,1.2146561725233962
0.41302417365564875,1.2164854231601718
0.4124137931034483,1.2183281072433894
0.4118052139695032,1.2201577416703941
0.4111984282907662,1.221961852329056
0.41059342815105443,1.223755667398223
0.40999020568070516,1.2255659319958923
0.4093887530562347,1.227402040390212
0.4087890625,1.2292456382825023
0.4081911262798634,1.2310701937977617
0.40759493670886077,1.2328696768179968
0.4070004861448711,1.2346653537689196
0.4064077669902913,1.236483057345489
0.4058167716917111,1.2383252179041537
0.4052274927395934,1.2401679291304109
0.4046399226679555,1.2419865485522186
0.40405405405405403,1.2437824250585126
0.40346987951807234,1.2455817712298987
0.40288739172281035,1.2474075421550577
0.4023065833733782,1.249254479200446
0.4017274472168905,1.2510944397252164
0.4011499760421658,1.2529066320623332
0.40057416267942586,1.2547002790932416
0.4,1.256505012853941
