Wavelength (μm),Power (W)
0.6999999999999998,0.009754894255411206
0.6982485404503752,0.009910740734573188
0.6965058236272876,0.010068023831732147
0.6947717842323651,0.010226384444149174
0.693046357615894,0.01038574697479157
0.691329479768786,0.01054638910085961
0.6896210873146621,0.010708628640503275
0.6879211175020541,0.010872463463689834
0.6862295081967212,0.011037554262882068
0.68454619787408,0.011203571844271933
0.6828711256117453,0.011370535756558803
0.6812042310821805,0.011538777255987467
0.6795454545454543,0.011708563558222891
0.6778947368421052,0.011879787652300841
0.6762520193861066,0.01205206027693038
0.674617244157937,0.012225107703544218
0.6729903536977491,0.012399046875511095
0.6713712910986367,0.012574238875539769
0.6697599999999999,0.01275087611552942
0.6681564245810054,0.012928748310092227
0.66656050955414,0.013107442091642966
0.664972200158856,0.01328676138048697
0.663391442155309,0.013466914909740984
0.6618181818181817,0.01364826609233133
0.6602523659305992,0.01383091288756449
0.6586939417781273,0.014014551382752875
0.657142857142857,0.01419877284249764
0.6555990602975724,0.014383475663398836
0.6540624999999999,0.014568947013183115
0.6525331254871394,0.014755523495070902
0.6510108864696733,0.014943195348548415
0.6494957331264545,0.015131582290559527
0.6479876160990712,0.015320309614675032
0.6464864864864864,0.015509380053782695
0.6449922958397534,0.015699138877524933
0.6435049961568023,0.01588986742942946
0.6420245398773006,0.01608144270878209
0.6405508798775822,0.01627343183383543
0.6390839694656488,0.016465521804199326
0.6376237623762375,0.01665782150238688
0.6361702127659573,0.016850708392661746
0.6347232752084911,0.017044383171297625
0.6332829046898638,0.017238612587638272
0.6318490566037736,0.01743293975998855
0.6304216867469878,0.01762713703311638
0.6290007513148008,0.017821412774898803
0.6275862068965516,0.01801614709598436
0.6261780104712041,0.018211439923712835
0.6247761194029849,0.018406959330638236
0.6233804914370811,0.018602255707060335
0.6219910846953937,0.018797204291533767
0.6206078576723497,0.018992098073688173
0.6192307692307691,0.01918728893459054
0.6178597785977858,0.019382763012479334
0.6164948453608247,0.019578109211347887
0.6151359294636296,0.019772916694006288
0.613782991202346,0.019967173455067176
0.6124359912216532,0.020161235030852192
0.6110948905109488,0.020355395372494707
0.6097596504005826,0.02054952220680222
0.6084302325581394,0.0207431513796939
0.6071065989847715,0.020935940025457934
0.6057887120115774,0.021127990083866854
0.6044765342960288,0.021319691981134405
0.6031700288184437,0.021511255690824863
0.6018691588785047,0.021702434929152144
0.600573888091822,0.02189274327384499
0.5992841803865425,0.02208193032920114
0.598,0.022270204219158204
0.5967213114754097,0.022457959166346898
0.5954480796586059,0.02264530100572952
0.594180269694819,0.022831882751339405
0.5929178470254957,0.023017228825197644
0.591660777385159,0.02320119904813364
0.5904090267983074,0.023384091494788692
0.5891625615763546,0.023566272142579083
0.5879213483146067,0.023747730206655205
0.5866853538892781,0.023928039354110777
0.5854545454545453,0.024106767692419352
0.584228890439637,0.024283894734374204
0.583008356545961,0.02445978500261155
0.5817929117442668,0.0246347458573274
0.5805825242718446,0.024808646274928882
0.5793771626297577,0.024981008426519985
0.5781767955801105,0.025151474059232164
0.5769813921433494,0.025320142731556514
0.5757909215955983,0.025487416474163055
0.574605353466026,0.02565351784574067
0.5734246575342465,0.025818201284266932
0.5722488038277511,0.025980969693759317
0.5710777626193724,0.026141563118795782
0.5699115044247787,0.02630019229916919
0.56875,0.026457264709103343
0.567593220338983,0.026612898309435407
0.5664411366711772,0.02676674770249158
0.5652937204591492,0.02691833062369246
0.5641509433962264,0.027067502782721943
0.5630127774041694,0.027214568689228287
0.5618791946308724,0.027359908665086856
0.560750167448091,0.027503524346824102
0.5596256684491978,0.027644993128799117
0.5585056704469646,0.027783880854451687
0.5573901464713714,0.027920167569666567
0.5562790697674418,0.028054226979651563
0.5551724137931034,0.028186381777255885
0.5540701522170748,0.02831651463436174
0.5529722589167767,0.02844415454383184
0.5518787079762689,0.028568945275167932
0.5507894736842105,0.02869099049847529
0.549704530531845,0.02881070336661544
0.5486238532110091,0.028928323072210053
0.5475474166121648,0.029043620032805178
0.5464751958224543,0.02915610756085247
0.5454071661237785,0.029265531356653333
0.5443433029908973,0.02937210871071367
0.5432835820895522,0.02947625971991641
0.5422279792746113,0.029578120909758362
0.5411764705882353,0.029677365984525722
0.5401290322580644,0.02977352661597402
0.5390856406954282,0.02986646675029487
0.5380462724935732,0.02995649885966188
0.537010904425914,0.030044017362675247
0.5359795134443022,0.030129045188765653
0.5349520766773163,0.030211182448014674
0.5339285714285714,0.030290011834283984
0.5329089751750477,0.030365522936522026
0.5318932655654384,0.03043809809040237
0.5308814204185162,0.03050807593116434
0.5298734177215189,0.03057536394440444
0.5288692356285534,0.03063951746940748
0.5278688524590164,0.030700198942066416
0.5268722466960352,0.030757521587401276
0.5258793969849246,0.030811907513917724
0.5248902821316614,0.03086361438342643
0.5239048811013767,0.03091244154629395
0.5229231730168644,0.03095793176160119
0.5219451371571072,0.030999849762561045
0.5209707529558182,0.03103842129292871
0.5199999999999999,0.031074075847919425
0.5190328580285183,0.03110697180583527
0.5180693069306931,0.031136816166918557
0.5171093267449042,0.031163172085604755
0.5161528976572133,0.03118592130445015
0.5152,0.031205382904512552
0.5142506142506142,0.03122196172138337
0.5133047210300429,0.031235706787684503
0.5123623011015911,0.031246255640362326
0.5114233353695784,0.031253222972835844
0.5104878048780487,0.03125661338821975
0.5095556908094948,0.03125681373944421
0.5086269744835965,0.03125417504322516
0.5077016373559733,0.03124863582050373
0.5067796610169492,0.031239792181411555
0.5058610271903323,0.031227337234418874
0.5049457177322074,0.031211395145660917
0.5040337146297411,0.031192390743275733
0.5031249999999999,0.03117059719420035
0.5022195560887822,0.031145850132444055
0.501317365269461,0.031117735101024634
0.500418410041841,0.0310860442285149
0.49952267303102615,0.03105100931327655
0.4986301369863014,0.031013061630018136
0.49774078478002376,0.0309723793916379
0.49685459940652815,0.030928710931217563
0.49597156398104264,0.03088166235864544
0.4950916617386162,0.030831137634082236
0.4942148760330578,0.030777456733962878
0.4933411903358868,0.030721026602677295
0.49247058823529416,0.030661921443483304
0.4916030534351144,0.030599824363120108
0.4907385697538101,0.030534390981756605
0.48987712112346404,0.03046564133999566
0.489018691588785,0.03039395839246028
0.4881632653061224,0.030319697145602016
0.48731082654249125,0.030242827250427897
0.48646135967460774,0.030162993189113103
0.48561484918793496,0.030079924605689312
0.4847712796757382,0.029993753220379196
0.4839306358381502,0.02990489616769358
0.4830929024812464,0.029813634119914185
0.48225806451612907,0.029719839869507908
0.48142610695802185,0.029623148116594868
0.4805970149253731,0.02952338079908699
0.4797707736389685,0.029420768880994996
0.4789473684210526,0.029315733638084002
0.4781267846944603,0.02920846575784627
0.47730900798175596,0.029098756158428007
0.4764940239043824,0.028986258460640353
0.4756818181818182,0.028870897708216867
0.474872376630743,0.02875298491965355
0.47406568516421294,0.028632916633738487
0.4732617297908423,0.028510785586325315
0.4724604966139955,0.02838632158362641
0.4716619718309859,0.028259223433334524
0.4708661417322834,0.02812952206166509
0.4700729927007299,0.027997584371422916
0.46928251121076225,0.027863756655141174
0.46849468382764414,0.027728033682953134
0.46770949720670385,0.027590108748891163
0.4669269380925823,0.027449747638020168
0.4661469933184855,0.02730708196204851
0.4653696498054475,0.02716250743998755
0.4645948945615982,0.027016299838570196
0.46382271468144043,0.026868363577199055
0.4630530973451327,0.026718381795745354
0.46228602981778016,0.026566203056341556
0.46152149944873205,0.02641204720446949
0.46075949367088603,0.026256310977218384
0.46,0.02609918582199324
0.4592430060340099,0.025940500046159713
0.45848849945235487,0.025779952613686007
0.45773646801530893,0.025617483769961202
0.4569868995633188,0.025453383238527857
0.45623978201634874,0.02528802240233098
0.45549510337323174,0.0251215016970247
0.4547528517110266,0.024953592559901035
0.45401301518438175,0.024784033244799906
0.4532755820249053,0.024612857343913414
0.4525405405405405,0.024440402040571935
0.45180787911494874,0.02426699053889722
0.45107758620689653,0.024092632895502963
0.45034965034965035,0.02391706611234401
0.4496240601503759,0.023740086839790765
0.4489008042895442,0.023561816507065986
0.44817987152034255,0.023382615089707275
0.4474612506680919,0.02320273985125276
0.4467449306296692,0.023022117996796487
0.44603090037293547,0.022840475877284105
0.44531914893617025,0.02265768212371038
0.4446096654275093,0.022473934166877298
0.44390243902439025,0.022289589815135524
0.44319745897300156,0.022104828608018767
0.4424947145877378,0.021919508150243572
0.4417941952506596,0.021733367242718717
0.44109589041095887,0.0215463538566641
0.4403997895844292,0.021358724695014073
0.4397058823529411,0.021170812257225807
0.43901415836392244,0.020982713177703595
0.43832460732984296,0.02079423299403464
0.4376372190277052,0.020605143445162854
0.4369519832985386,0.020415472566540187
0.4362688900468994,0.020225516114312045
0.4355879292403746,0.020035561513632866
0.43490909090909086,0.01984562387349155
0.43423236514522817,0.019655476913775963
0.4335577421025375,0.019464941893565988
0.43288521199586355,0.0192741215047487
0.4322147651006711,0.019083328708573207
0.43154639175257736,0.018892790735128808
0.43088008234688624,0.018702448430786764
0.4302158273381295,0.01851206474416401
0.42955361723961005,0.01832152197886343
0.4288934426229508,0.018130986723267847
0.42823529411764705,0.017940767474608536
0.42757916241062305,0.01775102166414974
0.426925038245793,0.017561628055218916
0.4262729124236252,0.01737235896623187
0.4256227758007118,0.017183163651354024
0.4249746192893401,0.01699425767360378
0.4243284338570705,0.01680592521722966
0.4236842105263158,0.016618250145405824
0.42304194037392623,0.01643106491000991
0.42240161453077696,0.016244168938130233
0.4217632241813602,0.01605757870436432
0.4211267605633802,0.01587154116581944
0.42049221496735306,0.015686299585427527
0.41985957873620866,0.015501866149334827
0.41922884326489734,0.015318044792531316
0.4186,0.015134676094791496
0.41797304043934097,0.014951838697096733
0.4173479561316052,0.014769792202598844
0.41672473867595816,0.014588726579716516
0.41610337972166994,0.014408589306323041
0.4154838709677419,0.014229174142408412
0.4148662041625371,0.014050372485526394
0.41425037110341417,0.013872315708016596
0.4136363636363636,0.013695257779314976
0.41302417365564875,0.01351932785856442
0.4124137931034483,0.013344419722605605
0.4118052139695032,0.01317033423145024
0.4111984282907662,0.012997018341960502
0.41059342815105443,0.012824643318592836
0.40999020568070516,0.012653441007605223
0.4093887530562347,0.01248347728493753
0.4087890625,0.012314606140254794
0.4081911262798634,0.012146650597225375
0.40759493670886077,0.011979613168463061
0.4070004861448711,0.011813690170721206
0.4064077669902913,0.011649077822585535
0.4058167716917111,0.011485781040160207
0.4052274927395934,0.011323629448247866
0.4046399226679555,0.01116248000132797
0.40405405405405403,0.011002386311243898
0.40346987951807234,0.010843554117759903
0.40288739172281035,0.010686134185938645
0.4023065833733782,0.010530076944656224
0.4017274472168905,0.010375203283302553
0.4011499760421658,0.010221412048853922
0.40057416267942586,0.010068799952591344
0.4,0.009917567187586835
