Wavelength (μm),Power (W)
0.6999999999999998,0.009744921268225147
0.6982485404503752,0.009901020437533095
0.6965058236272876,0.010058688096812677
0.6947717842323651,0.01021695558755162
0.693046357615894,0.010375648145754743
0.691329479768786,0.010535566593747697
0.6896210873146621,0.010697612669410748
0.6879211175020541,0.010861796663119079
0.6862295081967212,0.011027201799175154
0.68454619787408,0.011192952195611732
0.6828711256117453,0.011359144030442168
0.6812042310821805,0.011526730604826342
0.6795454545454543,0.011696477126596138
0.6778947368421052,0.011868110027605449
0.6762520193861066,0.012040584058855398
0.674617244157937,0.012213186796027991
0.6729903536977491,0.01238629066782543
0.6713712910986367,0.012560935066815977
0.6697599999999999,0.012737682112938022
0.6681564245810054,0.012915979907120822
0.66656050955414,0.013094726811865036
0.664972200158856,0.013273434604310408
0.663391442155309,0.013452735203032397
0.6618181818181817,0.013633677389530688
0.6602523659305992,0.013816566392908543
0.6586939417781273,0.014000599683125685
0.657142857142857,0.014184698964702218
0.6555990602975724,0.014368645819869755
0.6540624999999999,0.014553293486727563
0.6525331254871394,0.01473961923812542
0.6510108864696733,0.014927635560424942
0.6494957331264545,0.015116337954573735
0.6479876160990712,0.015304752600893586
0.6464864864864864,0.015492956844085819
0.6449922958397534,0.0156819677168832
0.6435049961568023,0.015872612130308265
0.6420245398773006,0.016064595335874118
0.6405508798775822,0.016256777053972916
0.6390839694656488,0.0164483636100673
0.6376237623762375,0.01663973132397934
0.6361702127659573,0.016831988015079687
0.6347232752084911,0.017025739977477073
0.6332829046898638,0.017220394194399715
0.6318490566037736,0.01741475373878163
0.6304216867469878,0.017608269156738826
0.6290007513148008,0.01780159546325704
0.6275862068965516,0.0179958485691903
0.6261780104712041,0.01819135889513725
0.6247761194029849,0.018387267930526086
0.6233804914370811,0.018582408306978868
0.6219910846953937,0.018776521683252872
0.6206078576723497,0.018970498799218444
0.6192307692307691,0.019165377527044804
0.6178597785977858,0.019361176862528466
0.6164948453608247,0.01955682710639608
0.6151359294636296,0.019751276549409495
0.613782991202346,0.019944583009439056
0.6124359912216532,0.020137809895019544
0.6110948905109488,0.020331834282835838
0.6097596504005826,0.020526351362013577
0.6084302325581394,0.02072015237787835
0.6071065989847715,0.0209123804919262
0.6057887120115774,0.021103410593485847
0.6044765342960288,0.021294400639914102
0.6031700288184437,0.021485994802082638
0.6018691588785047,0.021677577267063
0.600573888091822,0.021867885102851203
0.5992841803865425,0.0220563222796776
0.598,0.02224355697258451
0.5967213114754097,0.022430754434523296
0.5954480796586059,0.022618270347988197
0.594180269694819,0.02280521506228077
0.5929178470254957,0.022990362054034617
0.591660777385159,0.023173422704502684
0.5904090267983074,0.023355311039564272
0.5891625615763546,0.023537109848365975
0.5879213483146067,0.0237188519658192
0.5866853538892781,0.023899432889722644
0.5854545454545453,0.02407775172724185
0.584228890439637,0.024253850723498473
0.583008356545961,0.024428822528756194
0.5817929117442668,0.024603582927864937
0.5805825242718446,0.02477783241483723
0.5793771626297577,0.024950328488429308
0.5781767955801105,0.025120176887169346
0.5769813921433494,0.02528774903475005
0.5757909215955983,0.025454234424918246
0.574605353466026,0.025620309318357185
0.5734246575342465,0.025785358051930433
0.5722488038277511,0.02594808843749961
0.5710777626193724,0.026107878485797945
0.5699115044247787,0.026265401326695043
0.56875,0.02642185298340168
0.567593220338983,0.026577615383490506
0.5664411366711772,0.02673179739995926
0.5652937204591492,0.026883149987183445
0.5641509433962264,0.027031368539136267
0.5630127774041694,0.02717737705149072
0.5618791946308724,0.027322286973617136
0.560750167448091,0.027466153930591933
0.5596256684491978,0.02760787399341421
0.5585056704469646,0.027746331656828313
0.5573901464713714,0.027881560902238218
0.5562790697674418,0.02801466655311633
0.5551724137931034,0.028146590915406923
0.5540701522170748,0.028277056632652467
0.5529722589167767,0.028404826241046417
0.5518787079762689,0.028528997930931315
0.5507894736842105,0.02864993921310742
0.549704530531845,0.028768851536075637
0.5486238532110091,0.028886436390440882
0.5475474166121648,0.0290021023540681
0.5464751958224543,0.029114567911887577
0.5454071661237785,0.029223208631590853
0.5443433029908973,0.02932869506812878
0.5432835820895522,0.029432234269430882
0.5422279792746113,0.029534234519254188
0.5411764705882353,0.02963383393060513
0.5401290322580644,0.029729800033414834
0.5390856406954282,0.029821828401534415
0.5380462724935732,0.029910839554212285
0.537010904425914,0.02999795569108737
0.5359795134443022,0.03008326272531197
0.5349520766773163,0.03016569258056378
0.5339285714285714,0.030244150484485446
0.5329089751750477,0.030318669608059626
0.5318932655654384,0.030390348430341718
0.5308814204185162,0.030460141019913334
0.5298734177215189,0.030527806686719457
0.5288692356285534,0.03059215064040032
0.5278688524590164,0.030652293130008668
0.5268722466960352,0.030708596774232405
0.5258793969849246,0.030762253723032495
0.5248902821316614,0.03081398119345514
0.5239048811013767,0.030863233474438225
0.5229231730168644,0.03090877792844449
0.5219451371571072,0.03095001030977197
0.5209707529558182,0.030987590056552394
0.5199999999999999,0.031022713330008497
0.5190328580285183,0.03105581138946974
0.5180693069306931,0.03108607834665725
0.5171093267449042,0.031112334097353214
0.5161528976572133,0.0311342882106922
0.5152,0.031152842035370464
0.5142506142506142,0.031169107248890417
0.5133047210300429,0.03118320274477734
0.5123623011015911,0.03119412636975441
0.5114233353695784,0.031200835327886846
0.5104878048780487,0.031203366918070904
0.5095556908094948,0.031202792685693006
0.5086269744835965,0.03120006036290645
0.5077016373559733,0.031194975307788194
0.5067796610169492,0.031186417417432995
0.5058610271903323,0.03117355436628747
0.5049457177322074,0.03115674047077146
0.5040337146297411,0.031137135067516263
0.5031249999999999,0.03111545735892179
0.5022195560887822,0.031091222197938907
0.501317365269461,0.03106327692001682
0.500418410041841,0.031031054792744896
0.49952267303102615,0.03099519236378202
0.4986301369863014,0.03095684968885466
0.49774078478002376,0.0309164719231251
0.49685459940652815,0.03087332794393661
0.49597156398104264,0.030826318141605177
0.4950916617386162,0.030775175053066924
0.4942148760330578,0.030720762796078344
0.4933411903358868,0.030664158403976884
0.49247058823529416,0.030605510595106335
0.4916030534351144,0.030543905022471163
0.4907385697538101,0.030478374812007894
0.48987712112346404,0.03040896227046002
0.489018691588785,0.030336689415240158
0.4881632653061224,0.030262475951207134
0.48731082654249125,0.030186175221039568
0.48646135967460774,0.03010676415038873
0.48561484918793496,0.030023475224044905
0.4847712796757382,0.029936646817478593
0.4839306358381502,0.02984737939646085
0.4830929024812464,0.029756375516555383
0.48225806451612907,0.029663216614160208
0.48142610695802185,0.029566851075521768
0.4805970149253731,0.029466760133502107
0.4797707736389685,0.02936354320762133
0.4789473684210526,0.029258297691721107
0.4781267846944603,0.029151468897299884
0.47730900798175596,0.029042410390691817
0.4764940239043824,0.02893012187398594
0.4756818181818182,0.028814362373844413
0.474872376630743,0.028695939317230208
0.47406568516421294,0.028575869294123007
0.4732617297908423,0.02845432143131214
0.4724604966139955,0.02833048061318719
0.4716619718309859,0.028203469980968898
0.4708661417322834,0.028073332648420754
0.4700729927007299,0.02794101726069471
0.46928251121076225,0.0278073913220556
0.46849468382764414,0.02767235068377128
0.46770949720670385,0.027534981090872275
0.4669269380925823,0.027394589053317105
0.4661469933184855,0.027251486942108237
0.4653696498054475,0.027106691123169692
0.4645948945615982,0.02696086714448297
0.46382271468144043,0.02681366179176067
0.4630530973451327,0.026664135857878364
0.46228602981778016,0.02651182259301837
0.46152149944873205,0.026357269198492815
0.46075949367088603,0.02620148468503302
0.46,0.026044897419523285
0.4592430060340099,0.025886946463912867
0.45848849945235487,0.025726739335820405
0.45773646801530893,0.02556405945851748
0.4569868995633188,0.02539963814809809
0.45623978201634874,0.025234406462561275
0.45549510337323174,0.025068540392992913
0.4547528517110266,0.02490132651610159
0.45401301518438175,0.02473198390558196
0.4532755820249053,0.02456055012334652
0.4525405405405405,0.024387879589657373
0.45180787911494874,0.02421476540411894
0.45107758620689653,0.024041136442118246
0.45034965034965035,0.023866190601862493
0.4496240601503759,0.023689311057689982
0.4489008042895442,0.02351077368057754
0.44817987152034255,0.023331488748930887
0.4474612506680919,0.02315206476440837
0.4467449306296692,0.02297220644190677
0.44603090037293547,0.02279108902987273
0.44531914893617025,0.022608296274236044
0.4446096654275093,0.02242430928199831
0.44390243902439025,0.022240027001435143
0.44319745897300156,0.022055843970211673
0.4424947145877378,0.02187127981704931
0.4417941952506596,0.021685551422189215
0.44109589041095887,0.021498462814473217
0.4403997895844292,0.021310654505892198
0.4397058823529411,0.02112295254546478
0.43901415836392244,0.020935526319649452
0.43832460732984296,0.020747760600069387
0.4376372190277052,0.02055897021154083
0.4369519832985386,0.02036918046766645
0.4362688900468994,0.02017913568183457
0.4355879292403746,0.019989536334874974
0.43490909090909086,0.019800332572092762
0.43423236514522817,0.01961083077522462
0.4335577421025375,0.0194204884994244
0.43288521199586355,0.019229536663191393
0.4322147651006711,0.019038764270571013
0.43154639175257736,0.018848707430822495
0.43088008234688624,0.018659119827711432
0.4302158273381295,0.018469288447126052
0.42955361723961005,0.018278844814109216
0.4288934426229508,0.018088195586862862
0.42823529411764705,0.017898116185781476
0.42757916241062305,0.01770895436282029
0.426925038245793,0.0175203025085976
0.4262729124236252,0.01733148331816897
0.4256227758007118,0.017142317062514092
0.4249746192893401,0.016953344408421937
0.4243284338570705,0.0167652737494239
0.4236842105263158,0.01657825618965013
0.42304194037392623,0.016391767378559765
0.42240161453077696,0.016205214060663758
0.4217632241813602,0.01601860510595004
0.4211267605633802,0.015832567295389094
0.42049221496735306,0.01564769855211478
0.41985957873620866,0.015463961110985473
0.41922884326489734,0.015280763940746187
0.4186,0.01509763583103369
0.41797304043934097,0.014914759422151185
0.4173479561316052,0.014732796377829047
0.41672473867595816,0.014552201669359005
0.41610337972166994,0.014372769022637863
0.4154838709677419,0.014193890673201303
0.4148662041625371,0.014015242268716317
0.41425037110341417,0.013837153037375692
0.4136363636363636,0.01366026987112882
0.41302417365564875,0.013484886070720303
0.4124137931034483,0.013310658648797201
0.4118052139695032,0.013137010622191346
0.4111984282907662,0.012963776710842548
0.41059342815105443,0.01279139738943162
0.40999020568070516,0.012620460891139046
0.4093887530562347,0.01245109392836212
0.4087890625,0.012282855640597995
0.4081911262798634,0.012115239965290334
0.40759493670886077,0.011948238763738694
0.4070004861448711,0.011782362109144691
0.4064077669902913,0.01161810311059266
0.4058167716917111,0.011455429243405521
0.4052274927395934,0.011293843991606413
0.4046399226679555,0.011132943187897853
0.40405405405405403,0.010972862443563209
0.40346987951807234,0.010814138911049181
0.40288739172281035,0.010657145373400432
0.4023065833733782,0.010501709417962869
0.4017274472168905,0.010347321795211565
0.4011499760421658,0.010193700760231454
0.40057416267942586,0.010041102526393487
0.4,0.009890050288366833
