Wavelength (μm),Power (W)
0.6999999999999998,0.009745664196481532
0.6982485404503752,0.009901464767705963
0.6965058236272876,0.01005858034904405
0.6947717842323651,0.010216940377120112
0.693046357615894,0.010376489788437644
0.691329479768786,0.010537196319338164
0.6896210873146621,0.01069905382334847
0.6879211175020541,0.010862080997051337
0.6862295081967212,0.011026315694380933
0.68454619787408,0.011191805773856905
0.6828711256117453,0.011358598030911366
0.6812042310821805,0.011526727111786613
0.6795454545454543,0.011696206324595664
0.6778947368421052,0.011867021950950608
0.6762520193861066,0.01203913206957091
0.674617244157937,0.012212470131324302
0.6729903536977491,0.01238695270576139
0.6713712910986367,0.012562490093483663
0.6697599999999999,0.012738997993122876
0.6681564245810054,0.012916408215481973
0.66656050955414,0.013094676586815865
0.664972200158856,0.013273786655103868
0.663391442155309,0.013453748528267888
0.6618181818181817,0.013634593009782014
0.6602523659305992,0.013816362010982457
0.6586939417781273,0.013999096870001362
0.657142857142857,0.014182826580503615
0.6555990602975724,0.014367557963140416
0.6540624999999999,0.014553269490989987
0.6525331254871394,0.014739909860738703
0.6510108864696733,0.01492740158880178
0.6494957331264545,0.015115649045435862
0.6479876160990712,0.015304549569479816
0.6464864864864864,0.015494005765529131
0.6449922958397534,0.015683936869134114
0.6435049961568023,0.015874287213448652
0.6420245398773006,0.016065030319284128
0.6405508798775822,0.016256167877560526
0.6390839694656488,0.016447723770847845
0.6376237623762375,0.01663973413836857
0.6361702127659573,0.01683223517792444
0.6347232752084911,0.017025250778714186
0.6332829046898638,0.017218782119972492
0.6318490566037736,0.01741280104284615
0.6304216867469878,0.017607248361245748
0.6290007513148008,0.017802037431088075
0.6275862068965516,0.017997062391186522
0.6261780104712041,0.01819220967973316
0.6247761194029849,0.01838737085774193
0.6233804914370811,0.018582454535606665
0.6219910846953937,0.01877739534295945
0.6206078576723497,0.018972158382541512
0.6192307692307691,0.019166738380972326
0.6178597785977858,0.019361153660871367
0.6164948453608247,0.019555435953174726
0.6151359294636296,0.01974961779084896
0.613782991202346,0.01994371965016319
0.6124359912216532,0.02013773905852265
0.6110948905109488,0.020331643557800462
0.6097596504005826,0.020525368754682832
0.6084302325581394,0.02071882181686909
0.6071065989847715,0.020911889835911326
0.6057887120115774,0.021104451635874915
0.6044765342960288,0.0212963910073374
0.6031700288184437,0.021487609093256966
0.6018691588785047,0.02167803379149991
0.600573888091822,0.021867624546119745
0.5992841803865425,0.022056371689447102
0.598,0.022244290433968254
0.5967213114754097,0.022431410536059623
0.5954480796586059,0.022617763403082823
0.594180269694819,0.0228033688613793
0.5929178470254957,0.022988223867684086
0.591660777385159,0.023172295117586984
0.5904090267983074,0.023355516838184907
0.5891625615763546,0.02353779416153818
0.5879213483146067,0.023719011514573406
0.5866853538892781,0.023899044594875636
0.5854545454545453,0.024077773880466922
0.584228890439637,0.02425509735266428
0.583008356545961,0.02443094024183273
0.5817929117442668,0.02460526011448857
0.5805825242718446,0.024778046419890582
0.5793771626297577,0.024949314567414404
0.5781767955801105,0.025119095548764406
0.5769813921433494,0.025287422888446806
0.5757909215955983,0.02545431916921315
0.574605353466026,0.02561978445585918
0.5734246575342465,0.025783788616888605
0.5722488038277511,0.025946268874736476
0.5710777626193724,0.026107133016065917
0.5699115044247787,0.02626626771905555
0.56875,0.026423550572590746
0.567593220338983,0.026578863724900828
0.5664411366711772,0.026732106816720384
0.5652937204591492,0.026883206975463928
0.5641509433962264,0.027032124151511277
0.5630127774041694,0.027178850878885646
0.5618791946308724,0.027323406502236088
0.560750167448091,0.027465826865057063
0.5596256684491978,0.02760615123581012
0.5585056704469646,0.027744408724601145
0.5573901464713714,0.027880606531066877
0.5562790697674418,0.028014722048800202
0.5551724137931034,0.028146700187562376
0.5540701522170748,0.028276456376043202
0.5529722589167767,0.028403884729703944
0.5518787079762689,0.0285288699794373
0.5507894736842105,0.028651301109791454
0.549704530531845,0.02877108436234904
0.5486238532110091,0.028888153370489854
0.5475474166121648,0.029002474687000585
0.5464751958224543,0.02911404776031827
0.5454071661237785,0.029222899371302034
0.5443433029908973,0.029329073495797664
0.5432835820895522,0.029432618344288796
0.5422279792746113,0.02953357281367532
0.5411764705882353,0.02963195468464119
0.5401290322580644,0.02972775259446909
0.5390856406954282,0.029820923162792154
0.5380462724935732,0.02991139375900373
0.537010904425914,0.029999070428664575
0.5359795134443022,0.03008384960944414
0.5349520766773163,0.030165631617632065
0.5339285714285714,0.03024433358534137
0.5329089751750477,0.030319899627417695
0.5318932655654384,0.03039230649807321
0.5308814204185162,0.030461563776500857
0.5298734177215189,0.03052770856374564
0.5288692356285534,0.030590795616931742
0.5278688524590164,0.030650884629221237
0.5268722466960352,0.03070802685033176
0.5258793969849246,0.03076225335006589
0.5248902821316614,0.03081356693847244
0.5239048811013767,0.030861939121974893
0.5229231730168644,0.030907312604914774
0.5219451371571072,0.030949608891051878
0.5209707529558182,0.030988739664105435
0.5199999999999999,0.031024619980922315
0.5190328580285183,0.03105718100560249
0.5180693069306931,0.03108638009926707
0.5171093267449042,0.031112206542108965
0.5161528976572133,0.031134681921100256
0.5152,0.03115385513685053
0.5142506142506142,0.03116979290804338
0.5133047210300429,0.0311825674221698
0.5123623011015911,0.03119224326526078
0.5114233353695784,0.0311988658786731
0.5104878048780487,0.031202453519336242
0.5095556908094948,0.031202994089737587
0.5086269744835965,0.03120044736121968
0.5077016373559733,0.031194752185259158
0.5067796610169492,0.031185837432168698
0.5058610271903323,0.031173634761723475
0.5049457177322074,0.031158091024316957
0.5040337146297411,0.0311391781647089
0.5031249999999999,0.031116898939482204
0.5022195560887822,0.031091287486538742
0.501317365269461,0.03106240467364132
0.500418410041841,0.031030329050082208
0.49952267303102615,0.030995144976247065
0.4986301369863014,0.03095692998225931
0.49774078478002376,0.030915743528254786
0.49685459940652815,0.030871619086416054
0.49597156398104264,0.030824560883935842
0.4950916617386162,0.030774545838287447
0.4942148760330578,0.030721530321662104
0.4933411903358868,0.03066546056451636
0.49247058823529416,0.030606284890178713
0.4916030534351144,0.03054396566907431
0.4907385697538101,0.030478488941783077
0.48987712112346404,0.030409870072904476
0.489018691588785,0.03033815448906204
0.4881632653061224,0.0302634134040341
0.48731082654249125,0.030185735294864208
0.48646135967460774,0.030105214616993073
0.48561484918793496,0.03002193971033575
0.4847712796757382,0.029935981973980827
0.4839306358381502,0.029847388155276176
0.4830929024812464,0.029756177051989068
0.48225806451612907,0.029662341159806826
0.48142610695802185,0.02956585294515973
0.4805970149253731,0.029466674631998875
0.4797707736389685,0.029364769796150457
0.4789473684210526,0.029260114763301356
0.4781267846944603,0.02915270785502569
0.47730900798175596,0.02904257491102686
0.4764940239043824,0.0289297701664475
0.4756818181818182,0.028814372366775226
0.474872376630743,0.02869647682068693
0.47406568516421294,0.028576184782335215
0.4732617297908423,0.028453592001526244
0.4724604966139955,0.028328778408273768
0.4716619718309859,0.02820180068765472
0.4708661417322834,0.02807268899094852
0.4700729927007299,0.027941448309412295
0.46928251121076225,0.02780806423316253
0.46849468382764414,0.027672512068151287
0.46770949720670385,0.027534767717168323
0.4669269380925823,0.027394818442258204
0.4661469933184855,0.027252671662550798
0.4653696498054475,0.027108360294587984
0.4645948945615982,0.026961943748193676
0.46382271468144043,0.02681350444343146
0.4630530973451327,0.026663140483164864
0.46228602981778016,0.0265109557686348
0.46152149944873205,0.026357049271728026
0.46075949367088603,0.026201505306013596
0.46,0.026044386449962667
0.4592430060340099,0.025885730305483686
0.45848849945235487,0.025725550606219307
0.45773646801530893,0.0255638424398071
0.4569868995633188,0.025400590645673057
0.45623978201634874,0.025235779915247995
0.45549510337323174,0.025069404844657257
0.4547528517110266,0.024901478215734844
0.45401301518438175,0.024732036102459453
0.4532755820249053,0.024561138958181846
0.4525405405405405,0.024388868536337423
0.45180787911494874,0.02421532121265292
0.45107758620689653,0.02404059888726597
0.45034965034965035,0.023864799047195063
0.4496240601503759,0.02368800569650339
0.4489008042895442,0.02351028269438668
0.44817987152034255,0.023331670612303707
0.4474612506680919,0.023152187606374684
0.4467449306296692,0.02297183410817513
0.44603090037293547,0.02279060048539276
0.44531914893617025,0.02260847632480376
0.4446096654275093,0.022425459727573087
0.44390243902439025,0.022241565023061922
0.44319745897300156,0.0220568275965689
0.4424947145877378,0.021871305035549654
0.4417941952506596,0.02168507443848059
0.44109589041095887,0.02149822638925362
0.4403997895844292,0.02131085666477174
0.4397058823529411,0.021123057118731046
0.43901415836392244,0.020934907308211372
0.43832460732984296,0.02074646828351717
0.4376372190277052,0.020557779574328597
0.4369519832985386,0.020368859845427377
0.4362688900468994,0.020179711061639335
0.4355879292403746,0.019990325403203554
0.43490909090909086,0.0198006937118577
0.43423236514522817,0.019610814001630637
0.4335577421025375,0.019420698576085707
0.43288521199586355,0.019230378551108363
0.4322147651006711,0.019039905041810655
0.43154639175257736,0.018849346852560383
0.43088008234688624,0.01865878510952192
0.4302158273381295,0.018468305792270854
0.42955361723961005,0.018277991467685266
0.4288934426229508,0.01808791364824348
0.42823529411764705,0.01789812707079413
0.42757916241062305,0.0177086668457654
0.426925038245793,0.017519548922830485
0.4262729124236252,0.01733077374566926
0.4256227758007118,0.017142332424916085
0.4249746192893401,0.016954214337125253
0.4243284338570705,0.016766414829130705
0.4236842105263158,0.01657894170793838
0.42304194037392623,0.016391819422780656
0.42240161453077696,0.016205090256365687
0.4217632241813602,0.01601881236359957
0.4211267605633802,0.015833055037604023
0.42049221496735306,0.01564789205134493
0.41985957873620866,0.015463394239926261
0.41922884326489734,0.015279622601294823
0.4186,0.015096623085611568
0.41797304043934097,0.014914423937522991
0.4173479561316052,0.014733036006285777
0.41672473867595816,0.014552455925245053
0.41610337972166994,0.014372671573329516
0.4154838709677419,0.014193668850166978
0.4148662041625371,0.014015438586946673
0.41425037110341417,0.013837982410108652
0.4136363636363636,0.013661316572314858
0.41302417365564875,0.01348547312791672
0.4124137931034483,0.013310498293632136
0.4118052139695032,0.013136448318619608
0.4111984282907662,0.012963383608456369
0.41059342815105443,0.01279136213398688
0.40999020568070516,0.01262043326154081
0.4093887530562347,0.012450633050744888
0.4087890625,0.012281981798462753
0.4081911262798634,0.012114484211086336
0.40759493670886077,0.011948132132257273
0.4070004861448711,0.011782909317999923
0.4064077669902913,0.01161879741009084
0.4058167716917111,0.011455782068244616
0.4052274927395934,0.011293858212124131
0.4046399226679555,0.011133033494112342
0.40405405405405403,0.01097332944088497
0.40346987951807234,0.010814780109628969
0.40288739172281035,0.010657428531776076
0.4023065833733782,0.01050132159024385
0.4017274472168905,0.010346504232384705
0.4011499760421658,0.01019301401852254
0.40057416267942586,0.010040876931067116
0.4,0.009890105137668087
