Wavelength (μm),Power (W)
0.6999999999999998,0.01185985799703921
0.6982485404503752,0.01204937023106386
0.6965058236272876,0.012240550311294663
0.6947717842323651,0.012433313366716676
0.693046357615894,0.01262758117780211
0.691329479768786,0.012823292840175504
0.6896210873146621,0.013020412416399365
0.6879211175020541,0.013218932231440909
0.6862295081967212,0.013418871205512007
0.68454619787408,0.013620268467059363
0.6828711256117453,0.013823173303326353
0.6812042310821805,0.01402763314549207
0.6795454545454543,0.014233681638241501
0.6778947368421052,0.014441328846371542
0.6762520193861066,0.014650555300490333
0.674617244157937,0.014861310937248316
0.6729903536977491,0.01507351915605569
0.6713712910986367,0.015287085335700605
0.6697599999999999,0.015501908381886179
0.6681564245810054,0.015717893344093428
0.66656050955414,0.01593496294116546
0.664972200158856,0.016153066006261936
0.663391442155309,0.01637218137679909
0.6618181818181817,0.01659231652751974
0.6602523659305992,0.016813501143855516
0.6586939417781273,0.01703577670437836
0.657142857142857,0.017259183835116806
0.6555990602975724,0.017483749594112388
0.6540624999999999,0.01770947687162482
0.6525331254871394,0.01793633774262352
0.6510108864696733,0.018164271941064295
0.6494957331264545,0.01839319075280994
0.6479876160990712,0.018622985694392316
0.6464864864864864,0.01885354051818948
0.6449922958397534,0.01908474450359363
0.6435049961568023,0.019316504760032924
0.6420245398773006,0.019548755423785615
0.6405508798775822,0.019781462151725996
0.6390839694656488,0.02001462111418832
0.6376237623762375,0.020248252629996286
0.6361702127659573,0.0204823905085983
0.6347232752084911,0.020717068908050626
0.6332829046898638,0.02095230895483395
0.6318490566037736,0.021188107424574852
0.6304216867469878,0.02142442944116152
0.6290007513148008,0.021661206471414854
0.6275862068965516,0.021898339989149213
0.6261780104712041,0.022135710210116562
0.6247761194029849,0.02237318842492187
0.6233804914370811,0.022610650831461885
0.6219910846953937,0.022847991500597405
0.6206078576723497,0.023085132246511413
0.6192307692307691,0.02332202769461769
0.6178597785977858,0.023558664657343
0.6164948453608247,0.023795055902166615
0.6151359294636296,0.02403122936032247
0.613782991202346,0.024267214612589467
0.6124359912216532,0.02450302896443854
0.6110948905109488,0.024738665503194538
0.6097596504005826,0.0249740851993904
0.6084302325581394,0.025209214428223145
0.6071065989847715,0.025443948361495956
0.6057887120115774,0.025678159673945735
0.6044765342960288,0.025911711092884617
0.6031700288184437,0.02614446965459239
0.6018691588785047,0.02637632022993148
0.600573888091822,0.02660717599842531
0.5992841803865425,0.02683698406597999
0.598,0.02706572524904848
0.5967213114754097,0.027293408046490605
0.5954480796586059,0.027520057818284597
0.594180269694819,0.027745703016324768
0.5929178470254957,0.02797036082433038
0.591660777385159,0.028194024672359735
0.5904090267983074,0.02841665577685436
0.5891625615763546,0.028638180172422412
0.5879213483146067,0.028858491763086875
0.5866853538892781,0.02907746088938933
0.5854545454545453,0.02929494695998502
0.584228890439637,0.029510812995634572
0.583008356545961,0.029724939600428973
0.5817929117442668,0.02993723596779024
0.5805825242718446,0.030147646032333563
0.5793771626297577,0.03035614870746862
0.5781767955801105,0.030562752160799643
0.5769813921433494,0.030767483101849503
0.5757909215955983,0.03097037291363879
0.574605353466026,0.031171443003726654
0.5734246575342465,0.03137069188786684
0.5722488038277511,0.031568086225991145
0.5710777626193724,0.03176355735544314
0.5699115044247787,0.03195700392601979
0.56875,0.03214830019598242
0.567593220338983,0.03233730857736926
0.5664411366711772,0.03252389428930486
0.5652937204591492,0.03270793961491829
0.5641509433962264,0.032889355323571
0.5630127774041694,0.03306808730444706
0.5618791946308724,0.033244117277156815
0.560750167448091,0.03341745745946014
0.5596256684491978,0.033588140107859515
0.5585056704469646,0.03375620372529033
0.5573901464713714,0.033921678301664794
0.5562790697674418,0.03408457211859097
0.5551724137931034,0.034244862381371415
0.5540701522170748,0.03440249128524897
0.5529722589167767,0.034557368191255704
0.5518787079762689,0.03470937753995509
0.5507894736842105,0.03485839114852998
0.549704530531845,0.0350042827863121
0.5486238532110091,0.035146942534845675
0.5475474166121648,0.03528628847731302
0.5464751958224543,0.03542227372160619
0.5454071661237785,0.035554887562540126
0.5443433029908973,0.03568415059384732
0.5432835820895522,0.035810104617196574
0.5422279792746113,0.03593279908572119
0.5411764705882353,0.03605227641090235
0.5401290322580644,0.03616855865318975
0.5390856406954282,0.036281637876028054
0.5380462724935732,0.03639147181188941
0.537010904425914,0.03649798557637419
0.5359795134443022,0.03660107912914498
0.5349520766773163,0.036700639196488055
0.5339285714285714,0.03679655360852529
0.5329089751750477,0.036888725594176754
0.5318932655654384,0.03697708558902295
0.5308814204185162,0.03706159854220942
0.5298734177215189,0.03714226548336489
0.5288692356285534,0.037219119096289166
0.5278688524590164,0.037292214072937396
0.5268722466960352,0.03736161391306179
0.5258793969849246,0.03742737643940327
0.5248902821316614,0.0374895405124028
0.5239048811013767,0.03754811621660119
0.5229231730168644,0.03760308019023498
0.5219451371571072,0.0376543768845369
0.5209707529558182,0.03770192552174506
0.5199999999999999,0.03774563154602552
0.5190328580285183,0.03778540059594437
0.5180693069306931,0.03782115260158763
0.5171093267449042,0.037852833595439915
0.5161528976572133,0.0378804232251608
0.5152,0.037903936698412764
0.5142506142506142,0.03792342084668809
0.5133047210300429,0.03793894500241587
0.5123623011015911,0.03795058826823655
0.5114233353695784,0.037958425368568985
0.5104878048780487,0.037962513507922874
0.5095556908094948,0.037962882478596
0.5086269744835965,0.037959529695816584
0.5077016373559733,0.037952420988916255
0.5067796610169492,0.03794149698920323
0.5058610271903323,0.03792668399888922
0.5049457177322074,0.037907907464004055
0.5040337146297411,0.037885105737125266
0.5031249999999999,0.03785824177661376
0.5022195560887822,0.03782731079249461
0.501317365269461,0.03779234255104479
0.500418410041841,0.0377533979693746
0.49952267303102615,0.0377105606085775
0.4986301369863014,0.03766392454287266
0.49774078478002376,0.03761358069373497
0.49685459940652815,0.03755960396934346
0.49597156398104264,0.037502043399682154
0.4950916617386162,0.03744091693389256
0.4942148760330578,0.03737621176075245
0.4933411903358868,0.03730789006474794
0.49247058823529416,0.037235899202150535
0.4916030534351144,0.037160184532271004
0.4907385697538101,0.037080702695882005
0.48987712112346404,0.03699743306956431
0.489018691588785,0.036910385449986
0.4881632653061224,0.03681960267795383
0.48731082654249125,0.03672515778415472
0.48646135967460774,0.036627146176717106
0.48561484918793496,0.03652567423374488
0.4847712796757382,0.03642084626887076
0.4839306358381502,0.036312752102425884
0.4830929024812464,0.036201457352113615
0.48225806451612907,0.03608699807824473
0.48142610695802185,0.03596938066360103
0.4805970149253731,0.035848586908024484
0.4797707736389685,0.03572458342768304
0.4789473684210526,0.035597333720579695
0.4781267846944603,0.0354668108167624
0.47730900798175596,0.035333008347287316
0.4764940239043824,0.035195948152224765
0.4756818181818182,0.035055683153060985
0.474872376630743,0.03491229503306523
0.47406568516421294,0.03476588715891122
0.4732617297908423,0.03461657398573237
0.4724604966139955,0.034464468778110484
0.4716619718309859,0.03430967175200096
0.4708661417322834,0.0341522606537383
0.4700729927007299,0.03399228535949571
0.46928251121076225,0.03382976737919882
0.46849468382764414,0.033664704304360034
0.46770949720670385,0.03349707839501403
0.4669269380925823,0.03332686780143083
0.4661469933184855,0.03315405847945421
0.4653696498054475,0.0329786547568548
0.4645948945615982,0.032800686756175645
0.46382271468144043,0.03262021343193568
0.4630530973451327,0.03243732073954105
0.46228602981778016,0.0322521152884049
0.46152149944873205,0.03206471459918968
0.46075949367088603,0.03187523565431708
0.46,0.03168378370657643
0.4592430060340099,0.031490443248358285
0.45848849945235487,0.03129527265761033
0.45773646801530893,0.03109830339495295
0.4569868995633188,0.03089954384168805
0.45623978201634874,0.03069898707571999
0.45549510337323174,0.030496621217487408
0.4547528517110266,0.030292440552819263
0.45401301518438175,0.030086455524617573
0.4532755820249053,0.029878699897115273
0.4525405405405405,0.0296692338953738
0.45180787911494874,0.029458142821200864
0.45107758620689653,0.029245531423100764
0.45034965034965035,0.029031515019128033
0.4496240601503759,0.02881620891507489
0.4489008042895442,0.028599717935256782
0.44817987152034255,0.028382127845236232
0.4474612506680919,0.02816350010482578
0.4467449306296692,0.027943870806979406
0.44603090037293547,0.02772325393571414
0.44531914893617025,0.027501648338689448
0.4446096654275093,0.02727904718350726
0.44390243902439025,0.027055448256749347
0.44319745897300156,0.026830863339053462
0.4424947145877378,0.026605325066046685
0.4417941952506596,0.02637889013087233
0.44109589041095887,0.02615163831972949
0.4403997895844292,0.025923667587382904
0.4397058823529411,0.025695086051686633
0.43901415836392244,0.025466002301040767
0.43832460732984296,0.025236515680302926
0.4376372190277052,0.025006708205471552
0.4369519832985386,0.02477663946150323
0.4362688900468994,0.024546345314338844
0.4355879292403746,0.024315840609712647
0.43490909090909086,0.02408512535091662
0.43423236514522817,0.023854193262007235
0.4335577421025375,0.02362304124991162
0.43288521199586355,0.023391678143789243
0.4322147651006711,0.0231601312321204
0.43154639175257736,0.022928449510061216
0.43088008234688624,0.022696703121885053
0.4302158273381295,0.02246497913604298
0.42955361723961005,0.02223337441177404
0.4288934426229508,0.0220019868009245
0.42823529411764705,0.02177090619606926
0.42757916241062305,0.021540206943467314
0.426925038245793,0.021309942889126635
0.4262729124236252,0.0210801458638392
0.4256227758007118,0.020850827820050117
0.4249746192893401,0.020621986212137084
0.4243284338570705,0.020393611667753823
0.4236842105263158,0.020165696622686375
0.42304194037392623,0.01993824344637554
0.42240161453077696,0.019711270691186056
0.4217632241813602,0.01948481643422507
0.4211267605633802,0.019258938185780228
0.42049221496735306,0.019033709425144592
0.41985957873620866,0.018809213392334392
0.41922884326489734,0.01858553521702091
0.4186,0.018362753729335067
0.41797304043934097,0.018140934329190134
0.4173479561316052,0.017920124090162203
0.41672473867595816,0.01770034987820944
0.41610337972166994,0.017481619744979353
0.4154838709677419,0.017263927300367115
0.4148662041625371,0.01704725827366673
0.41425037110341417,0.016831598119940096
0.4136363636363636,0.01661693937525695
0.41302417365564875,0.01640328753317905
0.4124137931034483,0.016190664489817347
0.4118052139695032,0.01597910903520164
0.4111984282907662,0.01576867437884601
0.41059342815105443,0.015559423199016098
0.40999020568070516,0.015351421113667944
0.4093887530562347,0.015144729718418733
0.4087890625,0.014939400384848
0.4081911262798634,0.01473546985639743
0.40759493670886077,0.01453295834996774
0.4070004861448711,0.014331870428438144
0.4064077669902913,0.014132198430488834
0.4058167716917111,0.013933927811600098
0.4052274927395934,0.013737043436876173
0.4046399226679555,0.01354153572335239
0.40405405405405403,0.013347405577829442
0.40346987951807234,0.01315466730407091
0.40288739172281035,0.012963349017794426
0.4023065833733782,0.012773490544562584
0.4017274472168905,0.012585139208153566
0.4011499760421658,0.012398344271534923
0.40057416267942586,0.012213151009911976
0.4,0.012029595440891721
