Wavelength (μm),Power (W)
0.6999999999999998,0.00974565199421206
0.6982543640897755,0.009900934643270916
0.6965174129353233,0.010057523552349908
0.694789081885856,0.010215348221696358
0.693069306930693,0.010374353529286097
0.691358024691358,0.010534507015290734
0.689655172413793,0.010695802235273423
0.6879606879606879,0.010858257571466714
0.6862745098039215,0.01102191066649285
0.6845965770171148,0.011186809397485535
0.6829268292682925,0.011353000910744596
0.6812652068126519,0.011520520583149346
0.6796116504854367,0.011689382804728527
0.6779661016949151,0.011859575179657252
0.6763285024154588,0.012031057168883722
0.6746987951807227,0.01220376344301161
0.6730769230769229,0.012377611407266766
0.671462829736211,0.01255251163965548
0.6698564593301435,0.01272837947337235
0.6682577565632457,0.01290514574434913
0.6666666666666665,0.013082764853214156
0.6650831353919239,0.01326121873811286
0.6635071090047393,0.013440516046570889
0.6619385342789598,0.013620686613638031
0.660377358490566,0.013801772160258368
0.6588235294117646,0.013983814781286855
0.6572769953051643,0.014166845183205039
0.6557377049180327,0.014350872688334397
0.6542056074766354,0.01453587873313292
0.6526806526806526,0.014721815000268122
0.6511627906976742,0.014908606536639401
0.6496519721577725,0.015096159356199118
0.648148148148148,0.015284371253643417
0.6466512702078521,0.015473143995858066
0.6451612903225805,0.015662394810104924
0.6436781609195401,0.01585206519559596
0.6422018348623852,0.016042125532340145
0.6407322654462242,0.016232574672927484
0.639269406392694,0.01642343455897944
0.6378132118451024,0.01661474075772879
0.6363636363636362,0.016806530519428504
0.6349206349206349,0.016998830390682305
0.6334841628959276,0.01719164550647659
0.6320541760722347,0.01738495240748985
0.6306306306306306,0.01757869663469156
0.6292134831460674,0.017772795540597623
0.6278026905829596,0.017967145864206023
0.6263982102908277,0.018161634797425052
0.625,0.018356152665580217
0.6236080178173719,0.018550605058536923
0.6222222222222221,0.018744922332594262
0.6208425720620842,0.01893906484422418
0.6194690265486724,0.019133023000819243
0.6181015452538631,0.019326812098044825
0.6167400881057268,0.019520462807186296
0.6153846153846153,0.019714008925359943
0.6140350877192982,0.019907474477928535
0.612691466083151,0.020100862382367878
0.611353711790393,0.020294146624544603
0.6100217864923747,0.020487269304390873
0.608695652173913,0.02068014307886807
0.6073752711496746,0.020872658607308848
0.606060606060606,0.021064695745485293
0.6047516198704104,0.02125613658779509
0.603448275862069,0.021446878133449566
0.6021505376344086,0.021636842409139174
0.6008583690987124,0.021825982309113458
0.5995717344753746,0.022014282141466446
0.5982905982905982,0.022201752773198188
0.5970149253731343,0.022388422191553164
0.5957446808510637,0.02257432308686683
0.5944798301486198,0.02275947957723707
0.5932203389830508,0.022943895348348786
0.5919661733615221,0.02312754524582312
0.590717299578059,0.023310371771594323
0.5894736842105263,0.023492287099703708
0.588235294117647,0.023673180283184023
0.5870020964360586,0.02385292843387543
0.5857740585774058,0.02403140997385942
0.5845511482254697,0.02420851769807888
0.5833333333333333,0.02438416941527549
0.582120582120582,0.024558314344286153
0.5809128630705394,0.0247309341659476
0.5797101449275363,0.024902038543885518
0.5785123966942148,0.02507165587394655
0.5773195876288659,0.025239820840355386
0.5761316872427983,0.02540656090583855
0.5749486652977412,0.025571884048835775
0.5737704918032787,0.02573576985082139
0.5725971370143148,0.025898165466247073
0.5714285714285714,0.026058987173985627
0.570264765784114,0.0262181272546947
0.5691056910569106,0.026375465026869993
0.5679513184584178,0.026530880161499088
0.5668016194331983,0.026684266003569917
0.5656565656565656,0.02683554062574992
0.564516129032258,0.026984653725720953
0.5633802816901408,0.027131588188750562
0.5622489959839357,0.027276356048897218
0.561122244488978,0.02741898954043929
0.5599999999999999,0.027559528771204083
0.5588822355289421,0.02769800812762772
0.5577689243027888,0.027834443738649774
0.5566600397614313,0.027968824144528198
0.5555555555555555,0.028101105768437086
0.5544554455445544,0.028231213967041816
0.5533596837944663,0.02835904948186249
0.5522682445759368,0.028484499189701036
0.5511811023622046,0.028607449315474147
0.5500982318271119,0.02872779885067328
0.5490196078431372,0.02884547088657817
0.547945205479452,0.028960419929543374
0.546875,0.029072633953911162
0.5458089668615984,0.029182130848965215
0.5447470817120622,0.029288949875060782
0.5436893203883495,0.02939313959665089
0.5426356589147286,0.02949474436068908
0.5415860735009671,0.029593791635021623
0.5405405405405405,0.029690282371533594
0.5394990366088632,0.02978418603876596
0.5384615384615384,0.0298754411682293
0.5374280230326296,0.02996396131495407
0.5363984674329502,0.030049645407522408
0.5353728489483748,0.030132390714459452
0.5343511450381679,0.03021210620969039
0.5333333333333333,0.030288724055835298
0.5323193916349809,0.030362207249947724
0.5313092979127134,0.030432552136036236
0.5303030303030303,0.030499785368384578
0.5293005671077504,0.030563955858464394
0.5283018867924528,0.030625123094053363
0.527306967984934,0.03068334383513713
0.5263157894736842,0.03073865946352545
0.5253283302063789,0.030791086145232422
0.5243445692883895,0.030840609478358816
0.5233644859813084,0.030887184528295804
0.5223880597014925,0.03093074122931801
0.521415270018622,0.03097119421517501
0.5204460966542751,0.031008455387685787
0.5194805194805194,0.031042447070191416
0.5185185185185185,0.03107311349978787
0.5175600739371533,0.03110042870342021
0.5166051660516604,0.031124399427130377
0.5156537753222835,0.031145062636947544
0.5147058823529411,0.031162478038588615
0.5137614678899082,0.031176716911680093
0.5128205128205128,0.03118784917864055
0.5118829981718463,0.031195930922026705
0.510948905109489,0.031200994478873246
0.5100182149362477,0.031203042791811655
0.509090909090909,0.03120204896317311
0.5081669691470054,0.031197961066026545
0.5072463768115941,0.031190711368503668
0.5063291139240506,0.03118022837815604
0.5054151624548736,0.03116644963880341
0.5045045045045045,0.031149333093261424
0.5035971223021583,0.03112886508015866
0.5026929982046678,0.031105063616406296
0.5017921146953405,0.031077976427743452
0.5008944543828264,0.03104767408840414
0.5,0.03101423946338243
0.49910873440285203,0.030977755271447846
0.498220640569395,0.030938291898066864
0.49733570159857904,0.03089589753332917
0.49645390070921985,0.030850592302257233
0.49557522123893805,0.030802367364637175
0.49469964664310956,0.030751189108447114
0.4938271604938271,0.030697007691557927
0.49295774647887325,0.030639768449061376
0.49209138840070293,0.030579424203571178
0.4912280701754386,0.030515946373603407
0.49036777583187385,0.0304493329926699
0.48951048951048953,0.030379612290217045
0.4886561954624781,0.030306841250499778
0.48780487804878053,0.030231099425506086
0.4869565217391304,0.030152479085302386
0.48611111111111105,0.030071073406501933
0.48526863084922006,0.029986964722739783
0.48442906574394456,0.02990021483678668
0.48359240069084625,0.029810859028893966
0.48275862068965514,0.02971890475449335
0.48192771084337344,0.02962433521804421
0.4810996563573883,0.029527117177224727
0.48027444253859347,0.02942721161508779
0.4794520547945205,0.02932458543870854
0.4786324786324786,0.02921922220118191
0.477815699658703,0.029111130025053555
0.47700170357751276,0.029000345395632947
0.47619047619047616,0.028886932206503502
0.47538200339558573,0.028770976253264583
0.4745762711864407,0.028652576145608885
0.47377326565143824,0.028531832210495166
0.47297297297297297,0.028408835289155842
0.47217537942664417,0.028283657333465155
0.4713804713804714,0.028156345385428744
0.47058823529411764,0.028026919934314175
0.4697986577181208,0.027895377892047966
0.46901172529313234,0.02776169963898643
0.4682274247491639,0.02762585890340379
0.4674457429048414,0.02748783376611499
0.4666666666666667,0.027347616904624936
0.4658901830282862,0.027205223337225113
0.46511627906976744,0.02706069436834789
0.46434494195688225,0.026914097094938066
0.4635761589403973,0.02676551959505759
0.4628099173553719,0.026615062653946007
0.462046204620462,0.02646282946434414
0.46128500823723234,0.026308915069337076
0.4605263157894736,0.026153397343171854
0.4597701149425288,0.02599633102665293
0.4590163934426229,0.025837745799085717
0.458265139116203,0.025677648672255797
0.457516339869281,0.02551603025326169
0.45676998368678634,0.02535287376906613
0.4560260586319218,0.025188165286462897
0.45528455284552843,0.025021903373468348
0.45454545454545453,0.024854106560880218
0.4538087520259319,0.024684817354015752
0.4530744336569579,0.024514102144586655
0.4523424878836833,0.024342047077229784
0.45161290322580644,0.024168750613191792
0.45088566827697263,0.02399431408791418
0.45016077170418006,0.02381883188705856
0.449438202247191,0.023642382913061793
0.4487179487179487,0.023465024776851043
0.448,0.023286791670122
0.4472843450479233,0.023107696236975218
0.44657097288676234,0.02292773507983723
0.445859872611465,0.02274689692035592
0.4451510333863275,0.022565171995282497
0.4444444444444444,0.022382561073288083
0.4437400950871632,0.022199082561407773
0.44303797468354433,0.02201477651226781
0.4423380726698262,0.02182970488395476
0.44164037854889593,0.021643948049245014
0.4409448818897638,0.02145759818864325
0.44025157232704404,0.021270750724086972
0.43956043956043955,0.021083495269542982
0.438871473354232,0.0208959076391181
0.4381846635367762,0.02070804425497332
0.4375,0.020519939872990788
0.43681747269890797,0.02033160896898609
0.4361370716510904,0.020143050501837068
0.43545878693623635,0.019954255199582313
0.4347826086956522,0.019765214096552602
0.4341085271317829,0.019575926853240583
0.43343653250774,0.01938640844642875
0.4327666151468315,0.019196693112367665
0.4320987654320988,0.019006834907216334
0.4314329738058551,0.018816904832292265
0.4307692307692308,0.01862698505613219
0.4301075268817204,0.0184371612518083
0.42944785276073616,0.018247514374650272
0.42879019908116384,0.018058113282846282
0.4281345565749235,0.017869009441241843
0.42748091603053434,0.01768023457782114
0.4268292682926829,0.017491801648685357
0.426179604261796,0.017303708900319452
0.425531914893617,0.017115946294542522
0.424886191198786,0.016928503170332086
0.42424242424242425,0.01674137582233111
0.4236006051437216,0.016554573708595453
0.4229607250755287,0.016368123251286535
0.42232277526395173,0.016182068617718388
0.42168674698795183,0.01599646939101066
0.42105263157894735,0.015811395569295686
0.42042042042042044,0.01562692077998792
0.4197901049475262,0.01544311488598101
0.4191616766467066,0.015260037246808304
0.41853512705530643,0.015077731768118927
0.417910447761194,0.01489622455243938
0.41728763040238454,0.014715524510530027
0.4166666666666667,0.01453562678461842
0.4160475482912333,0.014356518359789286
0.41543026706231456,0.014178184877768939
0.41481481481481486,0.014000617478413803
0.41420118343195267,0.013823818507528533
0.413589364844904,0.013647805140038726
0.4129793510324484,0.01347261033621367
0.4123711340206186,0.013298281010285247
0.4117647058823529,0.01312487376587053
0.4111600587371513,0.0129524489598171
0.4105571847507331,0.012781064127640586
0.40995607613469986,0.01261076789542068
0.4093567251461988,0.012441595402362546
0.4087591240875913,0.012273565985270105
0.4081632653061224,0.01210668348016244
0.4075691411935954,0.01194093904645266
0.4069767441860465,0.01177631599274622
0.4063860667634253,0.011612795752496153
0.40579710144927533,0.01145036397700102
0.4052098408104197,0.011289015710787532
0.40462427745664736,0.011128758787725212
0.4040404040404041,0.010969614902769834
0.4034582132564841,0.010811618218031395
0.4028776978417266,0.010654811782604133
0.40229885057471265,0.010499242411797205
0.4017216642754663,0.010344954921599278
0.40114613180515757,0.010191986708059526
0.40057224606580827,0.010040363585489286
0.4,0.009890097567824581
