wavelength (microns),Re_eps,Im_eps
0.7, 1.7559, 0.00179437
0.699475, 1.75613, 0.00228675
0.698951, 1.75635, 0.00229073
0.698427, 1.75658, 0.00229471
0.697904, 1.75681, 0.00229871
0.697382, 1.75703, 0.00230273
0.697241, 1.7571,0.00230381
0.696861, 1.75726, 0.00230675
0.696341, 1.75749, 0.00231079
0.695821, 1.75771, 0.00231484
0.695302, 1.75794, 0.0023189
0.694784, 1.75816, 0.00232297
0.694267, 1.75838, 0.00232706
0.69375, 1.75861, 0.00233115
0.693234, 1.75883, 0.00233526
0.692719, 1.75905, 0.00233939
0.692205, 1.75927,0.00234352
0.691691, 1.7595,0.00234767
0.691179, 1.75972,0.00235183
0.690667, 1.75994, 0.002356
0.690155, 1.76016, 0.00236018
0.689645, 1.76038, 0.00236438
0.689135, 1.7606,0.00236859
0.688626, 1.76082,0.00237281
0.688118, 1.76104,0.00237705
0.687611, 1.76125,0.0023813
0.687104, 1.76147,0.00238556
0.686598, 1.76169, 0.00238983
0.686093, 1.76191,0.00239412
0.685588, 1.76212, 0.00239841
0.685084, 1.76234,0.00240273
0.684581, 1.76256,0.00240705
0.684079, 1.76277,0.00241139
0.683578, 1.76299,0.00241574
0.683448, 1.76304,0.00241686
0.683077,1.7632,0.0024201
0.682577,1.76342,0.00242447
0.682078,1.76363,0.00242886
0.681579,1.76384,0.00243326
0.681081,1.76406,0.00243768
0.680584,1.76427,0.00244211
0.680088,1.76448,0.00244655
0.679592,1.76469,0.002451
0.679097,1.7649,0.00245547
0.678603,1.76512,0.00245995
0.678109,1.76533,0.00246444
0.677616,1.76554,0.00246895
0.677124,1.76575,0.00247347
0.676633,1.76596,0.002478
0.676142,1.76617,0.00248255
0.675652,1.76638,0.00248711
0.675163,1.76658,0.00249168
0.674674,1.76679,0.00249627
0.674187,1.767,0.00250087
0.673699,1.76721,0.00250548
0.673213,1.76741,0.00251011
0.672727,1.76762,0.00251475
0.672242,1.76783,0.00251941
0.671758,1.76803,0.00252408
0.671274,1.76824,0.00252876
0.670791,1.76844,0.00253345
0.670309,1.76865,0.00253816
0.669828,1.76885,0.00254289
0.669655,1.76893,0.00254458
0.669347,1.76906,0.00254762
0.668867,1.76926,0.00255237
0.668387,1.76946,0.00255714
0.667908,1.76967,0.00256192
0.66743,1.76987,0.00256671
0.666953,1.77007,0.00257152
0.666476,1.77028,0.00257634
0.666,1.77048,0.00258118
0.665525,1.77068,0.00258602
0.66505,1.77088,0.00259089
0.664576,1.77108,0.00259577
0.664103,1.77128,0.00260066
0.66363,1.77148,0.00260556
0.663158,1.77168,0.00261049
0.662687,1.77188,0.00261542
0.662216,1.77208,0.00262037
0.661746,1.77228,0.00262533
0.661277,1.77247,0.00263031
0.660808,1.77267,0.00263531
0.66034,1.77287,0.00264031
0.659873,1.77307,0.00264534
0.659406,1.77326,0.00265037
0.65894,1.77346,0.00265543
0.658475,1.77366,0.00266049
0.65801,1.77385,0.00266558
0.657546,1.77405,0.00267067
0.657082,1.77424,0.00267578
0.65662,1.77444,0.00268091
0.656158,1.77463,0.00268605
0.655862,1.77476,0.00268935
0.655696,1.77483,0.00269121
0.655235,1.77502,0.00269638
0.654775,1.77522,0.00270157
0.654316,1.77541,0.00270677
0.653857,1.7756,0.00271198
0.653399,1.7758,0.00271722
0.652941,1.77599,0.00272246
0.652484,1.77618,0.00272773
0.652028,1.77637,0.00273301
0.651572,1.77656,0.0027383
0.651117,1.77676,0.00274361
0.650663,1.77695,0.00274894
0.650209,1.77714,0.00275428
0.649756,1.77733,0.00275963
0.649304,1.77752,0.002765
0.648852,1.77771,0.00277039
0.648401,1.7779,0.0027758
0.64795,1.77809,0.00278122
0.6475,1.77827,0.00278665
0.647051,1.77846,0.0027921
0.646602,1.77865,0.00279757
0.646154,1.77884,0.00280305
0.645706,1.77903,0.00280855
0.64526,1.77921,0.00281407
0.644813,1.7794,0.0028196
0.644368,1.77959,0.00282515
0.643923,1.77977,0.00283071
0.643478,1.77996,0.0028363
0.643034,1.78015,0.00284189
0.642591,1.78033,0.00284751
0.642149,1.78052,0.00285314
0.642069,1.78055,0.00285415
0.641707,1.7807,0.00285878
0.641265,1.78089,0.00286445
0.640825,1.78107,0.00287013
0.640385,1.78126,0.00287583
0.639945,1.78144,0.00288154
0.639506,1.78162,0.00288727
0.639068,1.78181,0.00289302
0.63863,1.78199,0.00289878
0.638193,1.78217,0.00290457
0.637756,1.78236,0.00291036
0.637321,1.78254,0.00291618
0.636885,1.78272,0.00292201
0.636451,1.7829,0.00292787
0.636016,1.78308,0.00293373
0.635583,1.78327,0.00293962
0.63515,1.78345,0.00294552
0.634717,1.78363,0.00295144
0.634286,1.78381,0.00295738
0.633855,1.78399,0.00296334
0.633424,1.78417,0.00296931
0.632994,1.78435,0.0029753
0.632564,1.78453,0.00298131
0.632136,1.78471,0.00298734
0.631707,1.78488,0.00299338
0.63128,1.78506,0.00299944
0.630853,1.78524,0.00300552
0.630426,1.78542,0.00301162
0.63,1.7856,0.00301774
0.629575,1.78578,0.00302388
0.62915,1.78595,0.00303003
0.628726,1.78613,0.0030362
0.628302,1.78631,0.00304239
0.628276,1.78632,0.00304277
0.627879,1.78648,0.0030486
0.627456,1.78666,0.00305483
0.627034,1.78684,0.00306107
0.626613,1.78701,0.00306734
0.626192,1.78719,0.00307362
0.625772,1.78736,0.00307993
0.625352,1.78754,0.00308625
0.624933,1.78771,0.00309259
0.624514,1.78789,0.00309895
0.624096,1.78806,0.00310533
0.623679,1.78824,0.00311172
0.623262,1.78841,0.00311814
0.622846,1.78858,0.00312458
0.62243,1.78876,0.00313103
0.622015,1.78893,0.00313751
0.6216,1.7891,0.003144
0.621186,1.78928,0.00315052
0.620772,1.78945,0.00315705
0.620359,1.78962,0.00316361
0.619947,1.78979,0.00317018
0.619535,1.78997,0.00317678
0.619124,1.79014,0.00318339
0.618713,1.79031,0.00319002
0.618302,1.79048,0.00319668
0.617893,1.79065,0.00320335
0.617483,1.79082,0.00321005
0.617075,1.79099,0.00321676
0.616667,1.79116,0.0032235
0.616259,1.79133,0.00323025
0.615852,1.7915,0.00323703
0.615446,1.79167,0.00324382
0.61504,1.79184,0.00325064
0.614634,1.79201,0.00325748
0.614483,1.79208,0.00326004
0.614229,1.79218,0.00326434
0.613825,1.79235,0.00327122
0.613421,1.79252,0.00327812
0.613018,1.79269,0.00328504
0.612615,1.79286,0.00329199
0.612213,1.79302,0.00329895
0.611811,1.79319,0.00330594
0.61141,1.79336,0.00331295
0.611009,1.79353,0.00331998
0.610609,1.79369,0.00332703
0.610209,1.79386,0.0033341
0.60981,1.79403,0.0033412
0.609412,1.79419,0.00334831
0.609014,1.79436,0.00335545
0.608616,1.79453,0.00336261
0.608219,1.79469,0.00336979
0.607823,1.79486,0.003377
0.607427,1.79503,0.00338423
0.607031,1.79519,0.00339148
0.606636,1.79536,0.00339875
0.606242,1.79552,0.00340604
0.605848,1.79569,0.00341336
0.605455,1.79585,0.0034207
0.605062,1.79601,0.00342806
0.604669,1.79618,0.00343545
0.604277,1.79634,0.00344286
0.603886,1.79651,0.00345029
0.603495,1.79667,0.00345774
0.603105,1.79683,0.00346522
0.602715,1.797,0.00347272
0.602326,1.79716,0.00348025
0.601937,1.79732,0.0034878
0.601548,1.79749,0.00349537
0.601161,1.79765,0.00350296
0.600773,1.79781,0.00351058
0.60069,1.79785,0.00351222
0.600386,1.79797,0.00351823
0.6,1.79814,0.00352589
0.599614,1.7983,0.00353359
0.599229,1.79846,0.0035413
0.598844,1.79862,0.00354904
0.59846,1.79878,0.00355681
0.598076,1.79894,0.0035646
0.597692,1.79911,0.00357241
0.597309,1.79927,0.00358025
0.596927,1.79943,0.00358811
0.596545,1.79959,0.003596
0.596164,1.79975,0.00360392
0.595783,1.79991,0.00361185
0.595402,1.80007,0.00361982
0.595022,1.80023,0.00362781
0.594643,1.80039,0.00363582
0.594264,1.80055,0.00364386
0.593885,1.80071,0.00365193
0.593507,1.80087,0.00366002
0.59313,1.80102,0.00366814
0.592753,1.80118,0.00367628
0.592376,1.80134,0.00368445
0.592,1.8015,0.00369264
0.591624,1.80166,0.00370087
0.591249,1.80182,0.00370911
0.590875,1.80198,0.00371739
0.5905,1.80213,0.00372569
0.590127,1.80229,0.00373402
0.589753,1.80245,0.00374237
0.589381,1.80261,0.00375075
0.589008,1.80276,0.00375916
0.588636,1.80292,0.0037676
0.588265,1.80308,0.00377606
0.587894,1.80324,0.00378455
0.587524,1.80339,0.00379307
0.587154,1.80355,0.00380162
0.586897,1.80366,0.00380757
0.586784,1.8037,0.00381019
0.586415,1.80386,0.00381879
0.586047,1.80402,0.00382742
0.585678,1.80417,0.00383608
0.585311,1.80433,0.00384476
0.584944,1.80448,0.00385348
0.584577,1.80464,0.00386222
0.584211,1.8048,0.00387099
0.583845,1.80495,0.00387979
0.583479,1.80511,0.00388862
0.583114,1.80526,0.00389748
0.58275,1.80542,0.00390636
0.582386,1.80557,0.00391528
0.582022,1.80573,0.00392422
0.581659,1.80588,0.0039332
0.581297,1.80603,0.0039422
0.580935,1.80619,0.00395123
0.580573,1.80634,0.0039603
0.580212,1.8065,0.00396939
0.579851,1.80665,0.00397851
0.57949,1.8068,0.00398767
0.57913,1.80696,0.00399685
0.578771,1.80711,0.00400607
0.578412,1.80726,0.00401531
0.578053,1.80742,0.00402459
0.577695,1.80757,0.00403389
0.577337,1.80772,0.00404323
0.57698,1.80788,0.0040526
0.576623,1.80803,0.004062
0.576267,1.80818,0.00407143
0.575911,1.80833,0.0040809
0.575556,1.80849,0.00409039
0.5752,1.80864,0.00409992
0.574846,1.80879,0.00410948
0.574492,1.80894,0.00411907
0.574138,1.80909,0.00412869
0.573785,1.80925,0.00413834
0.573432,1.8094,0.00414803
0.573103,1.80954,0.0041571
0.573079,1.80955,0.00415775
0.572727,1.8097,0.00416751
0.572376,1.80985,0.00417729
0.572025,1.81,0.00418711
0.571674,1.81015,0.00419696
0.571324,1.81031,0.00420685
0.570974,1.81046,0.00421677
0.570624,1.81061,0.00422672
0.570275,1.81076,0.00423671
0.569927,1.81091,0.00424673
0.569578,1.81106,0.00425679
0.569231,1.81121,0.00426688
0.568883,1.81136,0.004277
0.568537,1.81151,0.00428716
0.56819,1.81166,0.00429735
0.567844,1.81181,0.00430758
0.567498,1.81196,0.00431784
0.567153,1.81211,0.00432814
0.566809,1.81226,0.00433848
0.566464,1.81241,0.00434885
0.56612,1.81256,0.00435925
0.565777,1.81271,0.00436969
0.565434,1.81286,0.00438017
0.565091,1.81301,0.00439069
0.564749,1.81315,0.00440124
0.564407,1.8133,0.00441182
0.564065,1.81345,0.00442245
0.563724,1.8136,0.00443311
0.563384,1.81375,0.0044438
0.563043,1.8139,0.00445454
0.562704,1.81405,0.00446531
0.562364,1.8142,0.00447612
0.562025,1.81434,0.00448697
0.561687,1.81449,0.00449785
0.561349,1.81464,0.00450878
0.561011,1.81479,0.00451974
0.560673,1.81494,0.00453074
0.560337,1.81508,0.00454178
0.56,1.81523,0.00455286
0.559664,1.81538,0.00456397
0.559328,1.81553,0.00457513
0.55931,1.81554,0.00457573
0.558993,1.81568,0.00458632
0.558658,1.81582,0.00459756
0.558323,1.81597,0.00460883
0.557989,1.81612,0.00462015
0.557656,1.81626,0.0046315
0.557322,1.81641,0.0046429
0.556989,1.81656,0.00465433
0.556657,1.81671,0.00466581
0.556325,1.81685,0.00467733
0.555993,1.817,0.00468888
0.555662,1.81715,0.00470048
0.555331,1.81729,0.00471212
0.555,1.81744,0.00472381
0.55467,1.81759,0.00473553
0.55434,1.81773,0.0047473
0.554011,1.81788,0.0047591
0.553682,1.81803,0.00477096
0.553353,1.81817,0.00478285
0.553025,1.81832,0.00479479
0.552697,1.81847,0.00480677
0.55237,1.81861,0.00481879
0.552043,1.81876,0.00483085
0.551716,1.8189,0.00484296
0.55139,1.81905,0.00485512
0.551064,1.8192,0.00486732
0.550738,1.81934,0.00487956
0.550413,1.81949,0.00489185
0.550088,1.81963,0.00490418
0.549764,1.81978,0.00491655
0.54944,1.81993,0.00492898
0.549117,1.82007,0.00494144
0.548793,1.82022,0.00495396
0.548471,1.82036,0.00496651
0.548148,1.82051,0.00497912
0.547826,1.82065,0.00499177
0.547504,1.8208,0.00500447
0.547183,1.82094,0.00501721
0.546862,1.82109,0.00503
0.546542,1.82123,0.00504284
0.546221,1.82138,0.00505573
0.545902,1.82152,0.00506866
0.545582,1.82167,0.00508164
0.545517,1.8217,0.0050843
0.545263,1.82182,0.00509467
0.544944,1.82196,0.00510775
0.544626,1.82211,0.00512088
0.544308,1.82225,0.00513405
0.543991,1.8224,0.00514728
0.543673,1.82254,0.00516055
0.543357,1.82268,0.00517387
0.54304,1.82283,0.00518725
0.542724,1.82297,0.00520067
0.542408,1.82312,0.00521415
0.542093,1.82326,0.00522767
0.541778,1.82341,0.00524124
0.541463,1.82355,0.00525487
0.541149,1.8237,0.00526855
0.540835,1.82384,0.00528228
0.540522,1.82399,0.00529606
0.540209,1.82413,0.00530989
0.539896,1.82428,0.00532378
0.539583,1.82442,0.00533772
0.539271,1.82457,0.00535171
0.53896,1.82471,0.00536575
0.538648,1.82485,0.00537985
0.538337,1.825,0.005394
0.538027,1.82514,0.00540821
0.537716,1.82529,0.00542247
0.537406,1.82543,0.00543678
0.537097,1.82558,0.00545115
0.536788,1.82572,0.00546558
0.536479,1.82586,0.00548006
0.53617,1.82601,0.00549459
0.535862,1.82615,0.00550918
0.535554,1.8263,0.00552383
0.535247,1.82644,0.00553854
0.53494,1.82659,0.0055533
0.534633,1.82673,0.00556812
0.534327,1.82687,0.00558299
0.534021,1.82702,0.00559792
0.533715,1.82716,0.00561292
0.53341,1.82731,0.00562797
0.533105,1.82745,0.00564307
0.5328,1.82759,0.00565824
0.532496,1.82774,0.00567347
0.532192,1.82788,0.00568875
0.531888,1.82803,0.0057041
0.531724,1.8281,0.00571243
0.531585,1.82817,0.00571951
0.531282,1.82832,0.00573497
0.530979,1.82846,0.0057505
0.530677,1.8286,0.00576609
0.530375,1.82875,0.00578174
0.530074,1.82889,0.00579745
0.529773,1.82904,0.00581322
0.529472,1.82918,0.00582906
0.529171,1.82932,0.00584496
0.528871,1.82947,0.00586092
0.528571,1.82961,0.00587695
0.528272,1.82976,0.00589304
0.527973,1.8299,0.00590919
0.527674,1.83004,0.00592541
0.527376,1.83019,0.00594169
0.527077,1.83033,0.00595804
0.52678,1.83048,0.00597445
0.526482,1.83062,0.00599093
0.526185,1.83077,0.00600747
0.525888,1.83091,0.00602408
0.525592,1.83105,0.00604076
0.525296,1.8312,0.00605751
0.525,1.83134,0.00607432
0.524705,1.83149,0.0060912
0.524409,1.83163,0.00610815
0.524115,1.83178,0.00612517
0.52382,1.83192,0.00614226
0.523526,1.83206,0.00615941
0.523232,1.83221,0.00617664
0.522939,1.83235,0.00619394
0.522646,1.8325,0.0062113
0.522353,1.83264,0.00622874
0.52206,1.83279,0.00624625
0.521768,1.83293,0.00626383
0.521477,1.83308,0.00628148
0.521185,1.83322,0.00629921
0.520894,1.83337,0.00631701
0.520603,1.83351,0.00633488
0.520313,1.83366,0.00635283
0.520022,1.8338,0.00637085
0.519732,1.83394,0.00638894
0.519443,1.83409,0.00640711
0.519154,1.83423,0.00642535
0.518865,1.83438,0.00644367
0.518576,1.83452,0.00646207
0.518288,1.83467,0.00648054
0.518,1.83481,0.00649909
0.517931,1.83485,0.00650355
0.517712,1.83496,0.00651772
0.517425,1.8351,0.00653643
0.517138,1.83525,0.00655521
0.516851,1.8354,0.00657407
0.516565,1.83554,0.00659301
0.516279,1.83569,0.00661204
0.515993,1.83583,0.00663114
0.515708,1.83598,0.00665032
0.515423,1.83612,0.00666958
0.515138,1.83627,0.00668893
0.514854,1.83641,0.00670835
0.51457,1.83656,0.00672786
0.514286,1.8367,0.00674745
0.514002,1.83685,0.00676713
0.513719,1.837,0.00678689
0.513436,1.83714,0.00680673
0.513154,1.83729,0.00682666
0.512871,1.83743,0.00684667
0.512589,1.83758,0.00686677
0.512308,1.83773,0.00688695
0.512026,1.83787,0.00690722
0.511745,1.83802,0.00692758
0.511465,1.83816,0.00694803
0.511184,1.83831,0.00696856
0.510904,1.83846,0.00698919
0.510624,1.8386,0.0070099
0.510345,1.83875,0.0070307
0.510066,1.8389,0.00705159
0.509787,1.83904,0.00707258
0.509508,1.83919,0.00709365
0.50923,1.83934,0.00711482
0.508952,1.83948,0.00713608
0.508674,1.83963,0.00715743
0.508397,1.83978,0.00717887
0.50812,1.83993,0.00720041
0.507843,1.84007,0.00722204
0.507567,1.84022,0.00724377
0.507291,1.84037,0.0072656
0.507015,1.84052,0.00728752
0.506739,1.84066,0.00730953
0.506464,1.84081,0.00733165
0.506189,1.84096,0.00735386
0.505914,1.84111,0.00737617
0.50564,1.84125,0.00739858
0.505366,1.8414,0.00742109
0.505092,1.84155,0.0074437
0.504819,1.8417,0.00746641
0.504545,1.84185,0.00748922
0.504273,1.842,0.00751213
0.504138,1.84207,0.00752348
0.504,1.84214,0.00753515
0.503728,1.84229,0.00755827
0.503456,1.84244,0.00758149
0.503184,1.84259,0.00760482
0.502913,1.84274,0.00762825
0.502642,1.84289,0.00765179
0.502371,1.84304,0.00767544
0.5021,1.84319,0.00769919
0.50183,1.84334,0.00772305
0.50156,1.84349,0.00774702
0.50129,1.84364,0.00777109
0.501021,1.84379,0.00779528
0.500752,1.84394,0.00781958
0.500483,1.84409,0.00784399
0.500215,1.84424,0.0078685
0.499946,1.84439,0.00789314
0.499678,1.84454,0.00791788
0.499411,1.84469,0.00794274
0.499143,1.84484,0.00796771
0.498876,1.84499,0.0079928
0.49861,1.84514,0.008018
0.498343,1.84529,0.00804332
0.498077,1.84544,0.00806876
0.497811,1.84559,0.00809432
0.497545,1.84574,0.00811999
0.49728,1.84589,0.00814578
0.497015,1.84605,0.0081717
0.49675,1.8462,0.00819773
0.496486,1.84635,0.00822389
0.496221,1.8465,0.00825017
0.495957,1.84665,0.00827657
0.495694,1.84681,0.00830309
0.49543,1.84696,0.00832974
0.495167,1.84711,0.00835652
0.494904,1.84726,0.00838342
0.494642,1.84742,0.00841045
0.49438,1.84757,0.00843761
0.494118,1.84772,0.00846489
0.493856,1.84787,0.00849231
0.493594,1.84803,0.00851985
0.493333,1.84818,0.00854753
0.493072,1.84834,0.00857534
0.492812,1.84849,0.00860328
0.492552,1.84864,0.00863135
0.492291,1.8488,0.00865956
0.492032,1.84895,0.00868791
0.491772,1.84911,0.00871639
0.491513,1.84926,0.008745
0.491254,1.84942,0.00877376
0.490995,1.84957,0.00880265
0.490737,1.84973,0.00883169
0.490479,1.84988,0.00886086
0.490345,1.84996,0.00887604
0.490221,1.85004,0.00889018
0.489963,1.85019,0.00891964
0.489706,1.85035,0.00894924
0.489449,1.8505,0.00897898
0.489192,1.85066,0.00900887
0.488936,1.85082,0.00903891
0.488679,1.85097,0.0090691
0.488423,1.85113,0.00909943
0.488168,1.85129,0.00912991
0.487912,1.85144,0.00916054
0.487657,1.8516,0.00919132
0.487402,1.85176,0.00922226
0.487147,1.85192,0.00925335
0.486893,1.85207,0.00928459
0.486639,1.85223,0.00931598
0.486385,1.85239,0.00934754
0.486131,1.85255,0.00937925
0.485878,1.85271,0.00941111
0.485625,1.85286,0.00944314
0.485372,1.85302,0.00947533
0.48512,1.85318,0.00950767
0.484867,1.85334,0.00954018
0.484615,1.8535,0.00957286
0.484364,1.85366,0.00960569
0.484112,1.85382,0.0096387
0.483861,1.85398,0.00967187
0.48361,1.85414,0.00970521
0.483359,1.8543,0.00973871
0.483109,1.85446,0.00977239
0.482859,1.85462,0.00980624
0.482609,1.85479,0.00984026
0.482359,1.85495,0.00987445
0.48211,1.85511,0.00990882
0.48186,1.85527,0.00994337
0.481612,1.85543,0.00997809
0.481363,1.85559,0.010013
0.481115,1.85576,0.0100481
0.480866,1.85592,0.0100833
0.480619,1.85608,0.0101188
0.480371,1.85625,0.0101544
0.480124,1.85641,0.0101902
0.479876,1.85657,0.0102262
0.47963,1.85674,0.0102624
0.479383,1.8569,0.0102988
0.479137,1.85707,0.0103353
0.478891,1.85723,0.0103721
0.478645,1.85739,0.010409
0.478399,1.85756,0.0104461
0.478154,1.85773,0.0104835
0.477909,1.85789,0.010521
0.477664,1.85806,0.0105587
0.477419,1.85822,0.0105967
0.477175,1.85839,0.0106348
0.476931,1.85856,0.0106731
0.476687,1.85872,0.0107116
0.476552,1.85882,0.0107331
0.476444,1.85889,0.0107504
0.4762,1.85906,0.0107893
0.475957,1.85923,0.0108285
0.475714,1.85939,0.0108678
0.475472,1.85956,0.0109074
0.475229,1.85973,0.0109472
0.474987,1.8599,0.0109872
0.474745,1.86007,0.0110274
0.474504,1.86024,0.0110678
0.474262,1.86041,0.0111084
0.474021,1.86058,0.0111493
0.47378,1.86075,0.0111904
0.47354,1.86092,0.0112317
0.473299,1.86109,0.0112732
0.473059,1.86126,0.011315
0.472819,1.86143,0.011357
0.47258,1.8616,0.0113992
0.47234,1.86177,0.0114416
0.472101,1.86195,0.0114843
0.471862,1.86212,0.0115272
0.471624,1.86229,0.0115704
0.471385,1.86246,0.0116137
0.471147,1.86264,0.0116574
0.470909,1.86281,0.0117012
0.470671,1.86299,0.0117453
0.470434,1.86316,0.0117897
0.470197,1.86333,0.0118343
0.46996,1.86351,0.0118791
0.469723,1.86368,0.0119242
0.469486,1.86386,0.0119696
0.46925,1.86404,0.0120152
0.469014,1.86421,0.0120611
0.468778,1.86439,0.0121072
0.468543,1.86457,0.0121536
0.468307,1.86474,0.0122002
0.468072,1.86492,0.0122471
0.467837,1.8651,0.0122943
0.467603,1.86528,0.0123417
0.467368,1.86546,0.0123894
0.467134,1.86563,0.0124374
0.4669,1.86581,0.0124856
0.466667,1.86599,0.0125342
0.466433,1.86617,0.012583
0.4662,1.86635,0.0126321
0.465967,1.86653,0.0126814
0.465734,1.86672,0.0127311
0.465502,1.8669,0.012781
0.465269,1.86708,0.0128312
0.465037,1.86726,0.0128818
0.464806,1.86744,0.0129326
0.464574,1.86763,0.0129837
0.464343,1.86781,0.0130351
0.464111,1.86799,0.0130868
0.463881,1.86818,0.0131388
0.46365,1.86836,0.0131911
0.463419,1.86855,0.0132437
0.463189,1.86873,0.0132966
0.462959,1.86892,0.0133498
0.462759,1.86908,0.0133965
0.46273,1.8691,0.0134034
0.4625,1.86929,0.0134573
0.462271,1.86948,0.0135114
0.462042,1.86966,0.0135659
0.461813,1.86985,0.0136208
0.461584,1.87004,0.0136759
0.461356,1.87023,0.0137314
0.461128,1.87042,0.0137872
0.4609,1.8706,0.0138434
0.460672,1.87079,0.0138999
0.460444,1.87098,0.0139567
0.460217,1.87117,0.0140138
0.45999,1.87137,0.0140714
0.459763,1.87156,0.0141292
0.459537,1.87175,0.0141874
0.45931,1.87194,0.014246
0.459084,1.87213,0.0143049
0.458858,1.87233,0.0143642
0.458633,1.87252,0.0144238
0.458407,1.87271,0.0144838
0.458182,1.87291,0.0145442
0.457957,1.8731,0.0146049
0.457732,1.8733,0.014666
